486,486,486,486,486,486,486,486,486,507,515,509,510,508,499,519,508,510
486,486,486,486,486,486,486,486,486,507,515,508,510,508,499,519,508,510
487,487,487,487,487,487,487,487,487,505,515,508,510,508,499,519,508,509
487,487,487,487,487,487,487,487,487,505,515,509,510,508,499,519,508,508
489,489,489,489,489,489,489,489,489,504,515,510,510,508,499,519,508,508
489,489,489,489,489,489,489,489,489,504,514,510,511,508,500,519,508,508
490,490,490,490,490,490,490,490,490,504,514,510,511,508,502,519,508,508
491,491,491,491,491,491,491,491,491,504,513,511,511,508,502,519,508,508
491,491,491,491,491,491,491,491,491,504,512,510,510,508,503,519,508,508
491,491,491,491,491,491,491,491,491,504,511,511,508,508,502,519,508,508
489,489,489,489,489,489,489,489,489,504,511,511,508,508,502,519,509,508
490,490,490,490,490,490,490,490,490,503,509,511,508,508,503,519,508,508
491,491,491,491,491,491,491,491,491,503,508,512,505,508,504,519,510,510
491,491,491,491,491,491,491,491,491,503,508,512,505,507,504,519,510,510
491,491,491,491,491,491,491,491,491,502,505,512,505,507,504,519,510,511
491,491,491,491,491,491,491,491,491,502,505,512,505,507,504,519,511,511
489,489,489,489,489,489,489,489,489,503,504,512,505,507,504,519,511,511
491,491,491,491,491,491,491,491,491,502,504,512,505,508,504,519,512,512
492,492,492,492,492,492,492,492,492,502,504,512,507,508,505,519,513,512
495,495,495,495,495,495,495,495,495,502,504,511,508,508,507,519,514,512
499,499,499,499,499,499,499,499,499,502,504,511,508,510,508,519,515,512
507,507,507,507,507,507,507,507,507,504,503,512,508,511,510,519,515,513
516,516,516,516,516,516,516,516,516,504,503,512,508,512,511,519,516,513
526,526,526,526,526,526,526,526,526,504,502,511,508,514,513,519,518,512
536,536,536,536,536,536,536,536,536,504,502,511,508,515,515,519,518,512
547,547,547,547,547,547,547,547,547,504,502,510,510,515,519,519,518,512
556,556,556,556,556,556,556,556,556,504,502,511,510,515,521,519,518,512
563,563,563,563,563,563,563,563,563,504,501,510,510,516,526,518,518,513
569,569,569,569,569,569,569,569,569,504,501,510,510,518,527,518,516,513
573,573,573,573,573,573,573,573,573,504,500,511,510,518,531,518,515,513
575,575,575,575,575,575,575,575,575,504,501,511,508,518,531,518,515,513
575,575,575,575,575,575,575,575,575,504,500,510,508,516,532,518,515,512
574,574,574,574,574,574,574,574,574,503,501,510,508,516,531,518,513,512
571,571,571,571,571,571,571,571,571,502,502,508,508,516,529,516,512,512
566,566,566,566,566,566,566,566,566,500,502,508,508,518,527,516,511,511
559,559,559,559,559,559,559,559,559,500,502,508,508,517,524,516,510,511
551,551,551,551,551,551,551,551,551,499,503,508,508,516,523,516,510,511
543,543,543,543,543,543,543,543,543,499,504,508,507,515,519,516,509,510
536,536,536,536,536,536,536,536,536,499,504,508,507,515,518,518,508,510
526,526,526,526,526,526,526,526,526,500,504,509,505,515,515,518,508,510
516,516,516,516,516,516,516,516,516,502,504,508,505,513,513,518,508,511
508,508,508,508,508,508,508,508,508,502,505,508,505,513,511,519,508,511
501,501,501,501,501,501,501,501,501,504,505,510,505,512,510,519,508,511
494,494,494,494,494,494,494,494,494,504,508,510,505,512,508,520,508,511
487,487,487,487,487,487,487,487,487,505,510,510,505,511,508,521,508,512
483,483,483,483,483,483,483,483,483,507,513,510,505,512,507,521,508,512
481,481,481,481,481,481,481,481,481,508,518,510,505,512,505,521,508,512
480,480,480,480,480,480,480,480,480,510,521,511,507,511,504,523,508,512
481,481,481,481,481,481,481,481,481,511,527,510,507,511,504,523,510,512
483,483,483,483,483,483,483,483,483,512,531,510,507,511,504,523,508,511
486,486,486,486,486,486,486,486,486,513,536,510,507,511,504,521,510,511
489,489,489,489,489,489,489,489,489,515,542,510,507,510,504,521,510,510
495,495,495,495,495,495,495,495,495,515,547,510,508,509,505,521,510,511
499,499,499,499,499,499,499,499,499,515,551,510,508,508,505,520,510,511
505,505,505,505,505,505,505,505,505,518,555,510,509,508,507,520,510,511
511,511,511,511,511,511,511,511,511,518,556,510,509,508,508,521,510,511
513,513,513,513,513,513,513,513,513,519,557,511,510,508,508,520,511,511
516,516,516,516,516,516,516,516,516,519,556,511,511,508,510,519,511,510
519,519,519,519,519,519,519,519,519,519,553,511,511,508,510,519,511,511
519,519,519,519,519,519,519,519,519,519,550,510,511,508,510,519,511,510
519,519,519,519,519,519,519,519,519,519,545,511,511,508,510,519,511,511
519,519,519,519,519,519,519,519,519,519,540,511,511,508,508,519,511,511
515,515,515,515,515,515,515,515,515,519,536,510,512,508,508,519,511,510
513,513,513,513,513,513,513,513,513,519,531,511,512,508,505,519,510,511
509,509,509,509,509,509,509,509,509,519,524,510,513,508,505,519,511,510
504,504,504,504,504,504,504,504,504,519,519,510,513,508,504,518,510,510
502,502,502,502,502,502,502,502,502,519,515,509,513,508,504,518,509,510
496,496,496,496,496,496,496,496,496,519,510,510,513,510,504,516,508,509
492,492,492,492,492,492,492,492,492,519,505,510,513,509,504,515,508,510
489,489,489,489,489,489,489,489,489,518,503,510,512,510,503,515,508,509
487,487,487,487,487,487,487,487,487,518,499,510,512,509,502,515,508,508
487,487,487,487,487,487,487,487,487,515,497,510,512,508,502,515,508,508
483,483,483,483,483,483,483,483,483,515,496,510,511,508,500,516,508,508
483,483,483,483,483,483,483,483,483,513,496,510,511,508,499,516,507,508
481,481,481,481,481,481,481,481,481,513,496,511,511,508,500,516,507,508
480,480,480,480,480,480,480,480,480,513,496,511,511,508,500,515,508,508
480,480,480,480,480,480,480,480,480,512,496,510,511,510,500,515,507,508
480,480,480,480,480,480,480,480,480,511,496,511,510,510,502,515,505,508
480,480,480,480,480,480,480,480,480,511,498,510,510,511,502,515,505,508
481,481,481,481,481,481,481,481,481,510,499,510,511,511,502,515,505,507
481,481,481,481,481,481,481,481,481,510,502,510,510,511,503,515,507,507
482,482,482,482,482,482,482,482,482,508,504,510,510,511,504,515,507,508
483,483,483,483,483,483,483,483,483,508,505,510,508,511,504,515,507,508
483,483,483,483,483,483,483,483,483,508,508,511,508,511,503,515,508,508
484,484,484,484,484,484,484,484,484,508,510,511,508,510,504,515,508,508
486,486,486,486,486,486,486,486,486,509,511,511,507,510,503,515,508,508
487,487,487,487,487,487,487,487,487,510,513,511,505,508,503,515,508,508
487,487,487,487,487,487,487,487,487,510,514,511,505,508,503,515,508,508
487,487,487,487,487,487,487,487,487,510,515,512,505,507,502,515,508,508
488,488,488,488,488,488,488,488,488,510,516,512,505,507,502,516,509,508
489,489,489,489,489,489,489,489,489,509,518,512,505,507,502,518,511,508
491,491,491,491,491,491,491,491,491,509,518,512,508,507,502,516,512,508
491,491,491,491,491,491,491,491,491,508,519,511,508,507,501,516,512,508
492,492,492,492,492,492,492,492,492,508,518,511,508,508,502,516,513,508
491,491,491,491,491,491,491,491,491,508,516,511,510,508,500,516,514,508
492,492,492,492,492,492,492,492,492,508,514,510,511,508,501,515,515,508
491,491,491,491,491,491,491,491,491,508,512,510,511,508,502,515,515,508
491,491,491,491,491,491,491,491,491,507,511,511,511,508,502,516,517,508
489,489,489,489,489,489,489,489,489,507,510,511,508,508,504,518,518,510
489,489,489,489,489,489,489,489,489,505,508,511,508,509,504,518,519,511
489,489,489,489,489,489,489,489,489,505,507,511,508,510,507,518,519,511
489,489,489,489,489,489,489,489,489,505,505,511,508,511,508,518,518,511
491,491,491,491,491,491,491,491,491,504,504,511,508,511,511,519,518,511
495,495,495,495,495,495,495,495,495,504,504,511,508,511,515,518,517,511
499,499,499,499,499,499,499,499,499,504,502,511,508,512,518,518,517,511
508,508,508,508,508,508,508,508,508,504,499,511,508,512,521,518,515,511
518,518,518,518,518,518,518,518,518,504,499,511,508,512,524,516,515,511
527,527,527,527,527,527,527,527,527,504,499,510,508,513,527,515,515,511
540,540,540,540,540,540,540,540,540,504,499,510,507,515,529,515,514,510
551,551,551,551,551,551,551,551,551,504,499,509,507,515,531,515,512,510
561,561,561,561,561,561,561,561,561,504,498,508,507,515,531,515,512,510
571,571,571,571,571,571,571,571,571,504,499,508,507,515,532,515,512,509
579,579,579,579,579,579,579,579,579,503,498,508,508,515,531,515,511,509
583,583,583,583,583,583,583,583,583,504,499,508,508,515,531,515,510,510
583,583,583,583,583,583,583,583,583,504,499,508,508,513,529,515,508,510
583,583,583,583,583,583,583,583,583,504,499,508,508,513,528,515,508,510
579,579,579,579,579,579,579,579,579,504,499,509,508,513,527,515,508,510
575,575,575,575,575,575,575,575,575,504,500,510,508,512,525,515,508,511
568,568,568,568,568,568,568,568,568,504,499,510,508,513,523,515,508,510
560,560,560,560,560,560,560,560,560,502,499,510,508,512,519,515,507,510
551,551,551,551,551,551,551,551,551,502,499,510,508,512,516,515,507,508
543,543,543,543,543,543,543,543,543,500,499,510,508,512,515,516,508,508
534,534,534,534,534,534,534,534,534,500,499,509,507,513,512,516,508,508
526,526,526,526,526,526,526,526,526,502,500,510,505,513,511,518,508,508
519,519,519,519,519,519,519,519,519,503,502,508,506,513,510,519,508,508
513,513,513,513,513,513,513,513,513,504,504,508,507,514,508,519,508,508
507,507,507,507,507,507,507,507,507,504,505,509,508,515,508,519,508,508
502,502,502,502,502,502,502,502,502,505,508,508,508,513,507,519,508,509
496,496,496,496,496,496,496,496,496,507,512,508,508,513,505,521,508,510
494,494,494,494,494,494,494,494,494,508,518,508,509,513,505,521,510,510
492,492,492,492,492,492,492,492,492,508,523,508,510,512,505,521,509,509
492,492,492,492,492,492,492,492,492,510,527,508,510,512,505,523,510,510
492,492,492,492,492,492,492,492,492,511,534,508,511,512,505,524,510,510
494,494,494,494,494,494,494,494,494,512,537,508,511,511,507,524,510,508
496,496,496,496,496,496,496,496,496,512,543,509,512,511,507,524,511,508
499,499,499,499,499,499,499,499,499,513,547,510,511,511,508,523,510,508
504,504,504,504,504,504,504,504,504,515,550,510,512,511,508,523,510,508
508,508,508,508,508,508,508,508,508,515,551,510,512,511,508,523,511,508
511,511,511,511,511,511,511,511,511,516,551,510,512,510,508,521,510,508
513,513,513,513,513,513,513,513,513,518,551,511,513,510,508,521,511,508
518,518,518,518,518,518,518,518,518,519,550,511,513,508,508,519,510,508
519,519,519,519,519,519,519,519,519,519,547,511,513,508,508,520,510,510
521,521,521,521,521,521,521,521,521,520,543,512,513,508,508,519,510,510
521,521,521,521,521,521,521,521,521,519,537,512,513,508,508,519,510,510
521,521,521,521,521,521,521,521,521,519,532,512,512,508,507,519,510,510
519,519,519,519,519,519,519,519,519,519,527,512,513,508,507,519,510,510
518,518,518,518,518,518,518,518,518,519,523,512,513,508,505,519,510,510
515,515,515,515,515,515,515,515,515,519,518,512,513,508,505,519,509,510
512,512,512,512,512,512,512,512,512,518,513,512,512,508,505,519,508,510
510,510,510,510,510,510,510,510,510,518,510,512,512,508,504,519,508,508
507,507,507,507,507,507,507,507,507,518,505,512,512,508,504,519,508,508
502,502,502,502,502,502,502,502,502,516,502,511,511,508,504,519,508,508
499,499,499,499,499,499,499,499,499,515,499,512,510,507,503,519,508,508
496,496,496,496,496,496,496,496,496,515,497,512,509,508,502,519,508,508
492,492,492,492,492,492,492,492,492,515,496,512,508,508,502,519,508,509
489,489,489,489,489,489,489,489,489,513,494,512,508,507,502,519,507,508
487,487,487,487,487,487,487,487,487,513,492,511,508,505,502,519,507,508
486,486,486,486,486,486,486,486,486,513,494,512,508,505,501,519,507,508
483,483,483,483,483,483,483,483,483,513,496,511,508,507,499,519,508,507
482,482,482,482,482,482,482,482,482,512,496,511,508,508,500,519,508,508
480,480,480,480,480,480,480,480,480,512,499,512,509,508,499,519,508,507
479,479,479,479,479,479,479,479,479,512,502,510,510,508,499,518,508,506
479,479,479,479,479,479,479,479,479,511,503,510,510,508,499,518,507,505
479,479,479,479,479,479,479,479,479,510,504,510,510,508,499,516,507,504
480,480,480,480,480,480,480,480,480,508,508,510,511,508,499,516,508,505
480,480,480,480,480,480,480,480,480,508,509,508,511,508,500,516,508,505
483,483,483,483,483,483,483,483,483,508,511,510,511,508,502,515,508,505
483,483,483,483,483,483,483,483,483,507,512,508,511,508,502,516,510,505
486,486,486,486,486,486,486,486,486,505,513,510,511,507,502,516,511,507
487,487,487,487,487,487,487,487,487,505,515,510,510,507,502,515,512,507
487,487,487,487,487,487,487,487,487,505,514,510,510,508,502,516,513,508
489,489,489,489,489,489,489,489,489,504,515,510,510,508,502,515,514,508
489,489,489,489,489,489,489,489,489,504,513,510,508,508,502,515,515,508
491,491,491,491,491,491,491,491,491,504,513,510,508,510,501,515,515,510
491,491,491,491,491,491,491,491,491,504,513,510,508,511,502,515,516,510
492,492,492,492,492,492,492,492,492,504,512,510,508,512,502,515,516,510
492,492,492,492,492,492,492,492,492,504,511,510,508,515,502,515,516,510
491,491,491,491,491,491,491,491,491,504,511,510,508,515,504,515,516,510
489,489,489,489,489,489,489,489,489,504,508,510,508,515,504,515,516,511
487,487,487,487,487,487,487,487,487,504,507,511,508,515,503,515,516,511
487,487,487,487,487,487,487,487,487,504,507,510,508,518,504,515,516,511
487,487,487,487,487,487,487,487,487,504,504,510,508,518,504,515,515,511
487,487,487,487,487,487,487,487,487,504,504,510,508,518,504,516,515,511
487,487,487,487,487,487,487,487,487,505,504,511,508,518,508,518,515,511
487,487,487,487,487,487,487,487,487,504,504,511,508,519,510,516,515,511
487,487,487,487,487,487,487,487,487,504,504,511,508,519,512,518,514,511
488,488,488,488,488,488,488,488,488,504,503,510,508,519,515,518,512,511
493,493,493,493,493,493,493,493,493,504,502,511,508,519,519,518,512,511
499,499,499,499,499,499,499,499,499,504,500,511,508,518,523,518,511,511
507,507,507,507,507,507,507,507,507,504,499,510,508,518,526,518,511,511
515,515,515,515,515,515,515,515,515,504,499,511,508,518,527,518,511,511
526,526,526,526,526,526,526,526,526,504,499,510,508,516,529,518,510,511
537,537,537,537,537,537,537,537,537,503,498,510,508,515,531,519,508,510
550,550,550,550,550,550,550,550,550,503,499,511,508,515,531,519,510,510
560,560,560,560,560,560,560,560,560,502,499,511,508,514,532,519,508,510
568,568,568,568,568,568,568,568,568,502,499,511,508,514,531,519,508,510
575,575,575,575,575,575,575,575,575,502,497,510,508,512,531,519,509,508
580,580,580,580,580,580,580,580,580,502,497,510,507,512,529,519,510,508
583,583,583,583,583,583,583,583,583,502,499,510,507,512,527,520,510,509
583,583,583,583,583,583,583,583,583,502,500,510,507,512,526,519,510,510
583,583,583,583,583,583,583,583,583,502,504,509,505,511,524,521,510,508
580,580,580,580,580,580,580,580,580,502,507,509,504,511,521,519,510,509
575,575,575,575,575,575,575,575,575,502,511,509,504,511,519,521,510,510
568,568,568,568,568,568,568,568,568,502,515,508,504,512,518,519,510,509
560,560,560,560,560,560,560,560,560,502,521,508,504,512,515,519,509,509
551,551,551,551,551,551,551,551,551,504,527,508,504,512,514,519,508,508
542,542,542,542,542,542,542,542,542,504,534,508,504,512,512,519,508,509
532,532,532,532,532,532,532,532,532,504,540,508,504,512,511,519,508,508
524,524,524,524,524,524,524,524,524,505,544,508,504,511,508,518,508,508
515,515,515,515,515,515,515,515,515,505,550,508,504,510,507,518,508,508
505,505,505,505,505,505,505,505,505,508,551,508,505,510,505,518,508,508
499,499,499,499,499,499,499,499,499,508,555,508,505,510,505,518,508,508
492,492,492,492,492,492,492,492,492,508,556,509,505,510,504,518,508,508
487,487,487,487,487,487,487,487,487,510,553,510,507,510,504,518,508,508
484,484,484,484,484,484,484,484,484,511,551,511,508,509,505,518,508,508
483,483,483,483,483,483,483,483,483,511,547,511,508,510,505,518,508,508
483,483,483,483,483,483,483,483,483,511,543,511,509,511,505,518,508,508
483,483,483,483,483,483,483,483,483,512,540,511,510,511,507,518,508,508
487,487,487,487,487,487,487,487,487,512,536,511,510,511,507,518,508,508
489,489,489,489,489,489,489,489,489,513,530,512,512,511,508,518,508,508
494,494,494,494,494,494,494,494,494,515,526,512,512,511,508,518,508,508
497,497,497,497,497,497,497,497,497,515,519,511,512,511,508,518,508,508
502,502,502,502,502,502,502,502,502,515,515,512,513,511,508,518,508,508
504,504,504,504,504,504,504,504,504,515,511,512,513,511,508,518,508,508
508,508,508,508,508,508,508,508,508,516,508,511,514,510,508,519,508,508
511,511,511,511,511,511,511,511,511,518,504,511,515,508,508,519,508,508
512,512,512,512,512,512,512,512,512,518,502,511,515,508,508,519,508,508
513,513,513,513,513,513,513,513,513,518,499,512,515,508,508,519,509,508
513,513,513,513,513,513,513,513,513,518,497,512,515,508,508,519,509,508
513,513,513,513,513,513,513,513,513,518,495,511,515,508,508,519,508,508
512,512,512,512,512,512,512,512,512,516,495,512,515,508,507,519,509,508
511,511,511,511,511,511,511,511,511,516,495,512,515,508,507,519,508,508
510,510,510,510,510,510,510,510,510,515,495,512,515,508,505,518,508,508
508,508,508,508,508,508,508,508,508,515,496,511,515,508,504,518,508,508
504,504,504,504,504,504,504,504,504,513,496,511,513,509,504,518,508,508
502,502,502,502,502,502,502,502,502,513,497,511,513,508,503,516,508,508
499,499,499,499,499,499,499,499,499,512,499,510,512,508,502,516,508,508
496,496,496,496,496,496,496,496,496,512,502,510,511,508,502,516,507,508
496,496,496,496,496,496,496,496,496,512,504,510,510,508,500,518,508,508
494,494,494,494,494,494,494,494,494,511,507,510,510,508,500,516,508,510
492,492,492,492,492,492,492,492,492,511,508,510,508,508,500,516,508,510
489,489,489,489,489,489,489,489,489,511,511,508,508,508,500,516,508,511
487,487,487,487,487,487,487,487,487,510,512,508,508,508,501,516,510,511
486,486,486,486,486,486,486,486,486,510,513,509,507,508,500,516,510,511
483,483,483,483,483,483,483,483,483,510,513,510,507,508,500,516,511,512
483,483,483,483,483,483,483,483,483,508,513,510,505,507,501,516,512,512
481,481,481,481,481,481,481,481,481,508,514,510,508,507,500,516,512,511
481,481,481,481,481,481,481,481,481,507,512,508,508,507,502,515,513,511
481,481,481,481,481,481,481,481,481,508,511,508,508,507,502,515,515,511
481,481,481,481,481,481,481,481,481,505,511,510,510,508,502,515,515,511
481,481,481,481,481,481,481,481,481,505,508,509,510,508,503,515,515,511
481,481,481,481,481,481,481,481,481,505,507,510,510,510,503,515,515,511
483,483,483,483,483,483,483,483,483,504,505,510,511,511,503,515,515,511
484,484,484,484,484,484,484,484,484,504,504,510,511,512,502,515,515,511
486,486,486,486,486,486,486,486,486,504,504,510,511,513,502,515,515,511
487,487,487,487,487,487,487,487,487,504,504,510,512,515,502,515,515,511
487,487,487,487,487,487,487,487,487,504,504,510,512,515,502,515,513,511
489,489,489,489,489,489,489,489,489,504,502,509,511,516,503,515,513,510
491,491,491,491,491,491,491,491,491,504,502,510,511,516,504,515,512,510
492,492,492,492,492,492,492,492,492,504,500,509,511,518,504,515,511,509
492,492,492,492,492,492,492,492,492,503,499,509,511,518,505,515,510,508
492,492,492,492,492,492,492,492,492,504,499,510,510,519,508,515,510,508
492,492,492,492,492,492,492,492,492,504,499,509,509,519,511,515,509,508
492,492,492,492,492,492,492,492,492,504,499,509,508,519,514,516,509,508
492,492,492,492,492,492,492,492,492,504,499,509,507,519,517,516,508,508
489,489,489,489,489,489,489,489,489,505,499,508,508,519,519,516,508,508
489,489,489,489,489,489,489,489,489,505,499,508,508,519,524,518,508,508
489,489,489,489,489,489,489,489,489,506,499,510,507,518,527,518,508,508
489,489,489,489,489,489,489,489,489,507,499,510,507,516,529,519,508,508
491,491,491,491,491,491,491,491,491,508,499,510,507,516,531,519,509,509
493,493,493,493,493,493,493,493,493,507,499,510,507,515,534,519,509,509
497,497,497,497,497,497,497,497,497,505,499,511,505,515,536,519,510,510
504,504,504,504,504,504,504,504,504,505,499,510,505,515,536,519,509,510
512,512,512,512,512,512,512,512,512,504,502,510,505,515,536,520,510,510
521,521,521,521,521,521,521,521,521,504,504,510,507,515,535,521,510,510
531,531,531,531,531,531,531,531,531,504,506,510,507,515,534,521,510,510
542,542,542,542,542,542,542,542,542,504,510,510,508,515,531,521,509,510
551,551,551,551,551,551,551,551,551,504,515,510,508,515,529,520,511,510
560,560,560,560,560,560,560,560,560,504,519,510,508,513,527,520,510,510
568,568,568,568,568,568,568,568,568,504,526,510,508,513,524,519,511,509
572,572,572,572,572,572,572,572,572,504,532,510,507,512,521,519,510,509
575,575,575,575,575,575,575,575,575,503,540,510,507,512,519,519,511,509
575,575,575,575,575,575,575,575,575,503,544,510,505,511,518,519,510,508
575,575,575,575,575,575,575,575,575,502,551,510,505,511,515,519,510,508
572,572,572,572,572,572,572,572,572,503,555,510,505,511,513,519,510,508
568,568,568,568,568,568,568,568,568,502,558,511,505,511,511,519,510,508
563,563,563,563,563,563,563,563,563,502,560,511,507,511,510,518,509,508
556,556,556,556,556,556,556,556,556,502,559,511,507,511,508,517,508,508
547,547,547,547,547,547,547,547,547,503,558,511,508,511,508,517,508,508
540,540,540,540,540,540,540,540,540,504,553,511,508,511,508,515,507,508
531,531,531,531,531,531,531,531,531,504,548,511,508,511,505,515,507,507
523,523,523,523,523,523,523,523,523,504,543,511,508,511,505,515,507,507
515,515,515,515,515,515,515,515,515,505,539,510,508,511,505,515,506,507
507,507,507,507,507,507,507,507,507,507,534,510,508,511,505,515,505,507
499,499,499,499,499,499,499,499,499,508,527,511,508,510,507,515,505,507
494,494,494,494,494,494,494,494,494,510,523,511,508,511,507,515,506,507
488,488,488,488,488,488,488,488,488,511,518,511,508,511,507,515,507,507
484,484,484,484,484,484,484,484,484,512,513,511,510,511,508,515,507,507
483,483,483,483,483,483,483,483,483,512,509,511,508,511,508,515,507,508
483,483,483,483,483,483,483,483,483,513,505,511,508,511,508,515,507,507
483,483,483,483,483,483,483,483,483,515,502,512,508,510,508,515,508,508
484,484,484,484,484,484,484,484,484,515,499,511,508,510,508,515,508,508
487,487,487,487,487,487,487,487,487,515,497,511,508,509,510,515,508,508
492,492,492,492,492,492,492,492,492,516,496,511,509,510,510,515,508,508
496,496,496,496,496,496,496,496,496,516,496,511,511,509,510,515,508,508
502,502,502,502,502,502,502,502,502,518,496,511,510,509,510,515,508,509
507,507,507,507,507,507,507,507,507,516,496,511,511,508,509,515,508,510
511,511,511,511,511,511,511,511,511,516,496,511,512,508,508,515,508,510
515,515,515,515,515,515,515,515,515,518,496,511,512,508,508,515,507,511
518,518,518,518,518,518,518,518,518,518,496,511,512,508,505,515,505,511
519,519,519,519,519,519,519,519,519,518,499,511,512,507,505,515,507,511
521,521,521,521,521,521,521,521,521,518,499,511,511,507,505,515,508,511
520,520,520,520,520,520,520,520,520,517,502,511,511,508,504,516,508,511
519,519,519,519,519,519,519,519,519,516,504,511,511,508,504,516,508,512
519,519,519,519,519,519,519,519,519,516,504,512,511,508,504,516,508,511
515,515,515,515,515,515,515,515,515,515,507,512,511,508,502,515,509,511
513,513,513,513,513,513,513,513,513,515,508,511,511,508,501,515,510,511
510,510,510,510,510,510,510,510,510,515,508,511,511,508,500,515,510,511
507,507,507,507,507,507,507,507,507,515,508,511,511,508,499,515,511,511
504,504,504,504,504,504,504,504,504,512,508,511,511,508,499,515,511,510
500,500,500,500,500,500,500,500,500,512,508,509,511,507,499,515,512,510
497,497,497,497,497,497,497,497,497,511,508,510,511,507,499,515,512,511
495,495,495,495,495,495,495,495,495,510,508,510,510,505,499,516,513,510
492,492,492,492,492,492,492,492,492,510,508,509,510,505,499,515,513,510
492,492,492,492,492,492,492,492,492,510,508,508,510,505,499,515,515,508
489,489,489,489,489,489,489,489,489,511,508,508,510,505,499,515,515,508
487,487,487,487,487,487,487,487,487,511,507,510,509,505,499,515,515,508
487,487,487,487,487,487,487,487,487,511,505,510,508,504,499,515,515,508
487,487,487,487,487,487,487,487,487,511,505,510,509,505,500,515,515,508
486,486,486,486,486,486,486,486,486,511,504,510,508,505,502,515,515,508
483,483,483,483,483,483,483,483,483,512,504,510,508,505,502,515,513,508
483,483,483,483,483,483,483,483,483,511,502,508,510,508,502,513,512,507
483,483,483,483,483,483,483,483,483,510,499,508,510,509,503,512,512,507
483,483,483,483,483,483,483,483,483,510,499,508,510,511,504,512,511,505
483,483,483,483,483,483,483,483,483,509,497,508,511,512,503,512,510,505
484,484,484,484,484,484,484,484,484,508,497,508,511,513,504,512,509,505
484,484,484,484,484,484,484,484,484,508,496,508,511,515,504,512,508,504
484,484,484,484,484,484,484,484,484,508,496,508,511,515,503,513,508,505
484,484,484,484,484,484,484,484,484,508,496,508,510,516,503,513,508,505
487,487,487,487,487,487,487,487,487,508,496,509,509,518,502,515,508,505
487,487,487,487,487,487,487,487,487,508,497,510,508,519,500,515,507,505
487,487,487,487,487,487,487,487,487,508,497,510,508,518,500,515,507,507
489,489,489,489,489,489,489,489,489,508,497,510,508,519,501,516,507,507
492,492,492,492,492,492,492,492,492,508,499,509,508,519,500,518,507,508
494,494,494,494,494,494,494,494,494,508,499,508,508,519,502,519,507,508
494,494,494,494,494,494,494,494,494,508,499,510,507,518,504,519,507,508
495,495,495,495,495,495,495,495,495,508,499,510,508,518,505,519,508,508
496,496,496,496,496,496,496,496,496,508,500,510,508,516,508,519,507,510
495,495,495,495,495,495,495,495,495,508,502,511,508,515,512,520,507,510
495,495,495,495,495,495,495,495,495,508,504,510,508,515,515,520,508,510
494,494,494,494,494,494,494,494,494,508,504,511,508,513,519,521,508,509
495,495,495,495,495,495,495,495,495,508,507,511,509,513,523,519,508,510
499,499,499,499,499,499,499,499,499,508,510,511,508,512,526,521,509,510
504,504,504,504,504,504,504,504,504,508,514,512,508,511,528,521,511,510
513,513,513,513,513,513,513,513,513,508,519,513,508,510,531,521,511,510
524,524,524,524,524,524,524,524,524,508,524,513,507,510,532,521,512,510
535,535,535,535,535,535,535,535,535,508,528,513,505,510,535,521,512,510
545,545,545,545,545,545,545,545,545,508,534,513,505,508,536,521,512,510
555,555,555,555,555,555,555,555,555,508,540,513,505,508,536,521,512,510
563,563,563,563,563,563,563,563,563,509,543,513,505,509,535,519,512,508
569,569,569,569,569,569,569,569,569,508,550,512,505,510,532,519,512,508
574,574,574,574,574,574,574,574,574,508,551,512,505,510,531,519,512,508
575,575,575,575,575,575,575,575,575,508,556,512,508,511,529,519,511,508
577,577,577,577,577,577,577,577,577,508,556,512,508,511,527,519,511,508
575,575,575,575,575,575,575,575,575,508,556,511,508,511,524,519,511,507
572,572,572,572,572,572,572,572,572,508,553,511,508,511,521,518,511,507
567,567,567,567,567,567,567,567,567,507,550,511,508,512,519,516,510,507
560,560,560,560,560,560,560,560,560,508,546,511,508,511,518,516,509,507
551,551,551,551,551,551,551,551,551,507,542,511,508,511,515,516,508,508
543,543,543,543,543,543,543,543,543,507,536,511,507,511,513,515,508,508
535,535,535,535,535,535,535,535,535,508,531,511,507,511,512,516,508,508
527,527,527,527,527,527,527,527,527,508,526,511,508,511,511,516,507,508
519,519,519,519,519,519,519,519,519,508,519,511,508,510,510,515,507,508
511,511,511,511,511,511,511,511,511,508,515,510,508,510,508,516,505,508
504,504,504,504,504,504,504,504,504,510,511,510,508,510,507,515,504,508
497,497,497,497,497,497,497,497,497,511,506,510,508,510,505,515,504,508
492,492,492,492,492,492,492,492,492,512,503,510,510,510,504,515,504,508
487,487,487,487,487,487,487,487,487,513,499,510,508,510,504,515,504,508
483,483,483,483,483,483,483,483,483,515,496,509,508,510,504,515,504,508
480,480,480,480,480,480,480,480,480,515,495,508,508,510,504,515,504,508
479,479,479,479,479,479,479,479,479,516,494,508,508,510,504,515,504,510
480,480,480,480,480,480,480,480,480,518,492,508,508,510,504,513,504,510
481,481,481,481,481,481,481,481,481,519,492,508,508,508,504,513,505,510
486,486,486,486,486,486,486,486,486,519,492,508,508,508,504,513,507,510
492,492,492,492,492,492,492,492,492,519,492,508,508,508,504,515,507,511
496,496,496,496,496,496,496,496,496,521,495,509,510,507,507,514,508,511
502,502,502,502,502,502,502,502,502,521,496,508,509,506,508,513,508,510
505,505,505,505,505,505,505,505,505,521,499,508,509,505,508,513,508,510
511,511,511,511,511,511,511,511,511,521,500,509,511,505,509,515,508,510
515,515,515,515,515,515,515,515,515,521,504,509,511,505,510,515,508,510
517,517,517,517,517,517,517,517,517,519,505,510,511,505,510,514,508,508
519,519,519,519,519,519,519,519,519,519,507,509,511,505,510,515,510,508
519,519,519,519,519,519,519,519,519,518,508,510,512,505,508,515,510,508
519,519,519,519,519,519,519,519,519,517,511,509,512,505,508,515,511,510
519,519,519,519,519,519,519,519,519,515,512,510,512,507,508,515,512,510
518,518,518,518,518,518,518,518,518,515,512,511,512,505,507,515,512,511
518,518,518,518,518,518,518,518,518,515,512,511,512,505,507,515,513,511
515,515,515,515,515,515,515,515,515,515,512,511,512,505,505,515,515,511
513,513,513,513,513,513,513,513,513,515,512,511,511,505,504,515,515,510
511,511,511,511,511,511,511,511,511,513,512,511,512,504,504,515,515,510
508,508,508,508,508,508,508,508,508,513,511,511,512,505,502,515,515,510
504,504,504,504,504,504,504,504,504,513,509,511,511,505,500,515,516,510
501,501,501,501,501,501,501,501,501,512,508,511,511,505,500,515,515,510
497,497,497,497,497,497,497,497,497,511,507,511,511,505,500,515,515,509
495,495,495,495,495,495,495,495,495,511,505,511,511,505,500,515,515,510
492,492,492,492,492,492,492,492,492,511,504,511,511,505,500,515,515,510
491,491,491,491,491,491,491,491,491,510,504,511,511,505,500,515,513,510
488,488,488,488,488,488,488,488,488,511,502,511,511,505,500,515,512,510
487,487,487,487,487,487,487,487,487,510,500,510,511,507,500,515,512,510
487,487,487,487,487,487,487,487,487,511,499,510,510,507,500,515,511,510
485,485,485,485,485,485,485,485,485,510,498,510,510,508,500,514,510,510
484,484,484,484,484,484,484,484,484,510,496,511,508,508,502,515,510,510
483,483,483,483,483,483,483,483,483,510,496,511,508,508,502,515,509,510
483,483,483,483,483,483,483,483,483,510,495,512,508,510,502,515,508,510
484,484,484,484,484,484,484,484,484,508,495,511,508,511,503,516,508,509
485,485,485,485,485,485,485,485,485,508,495,512,508,513,503,516,508,508
486,486,486,486,486,486,486,486,486,508,494,511,508,515,504,518,508,508
486,486,486,486,486,486,486,486,486,508,495,511,508,515,503,518,507,508
486,486,486,486,486,486,486,486,486,508,494,511,510,516,504,518,508,507
487,487,487,487,487,487,487,487,487,510,495,510,510,516,503,518,507,507
487,487,487,487,487,487,487,487,487,510,496,510,510,519,502,519,507,507
487,487,487,487,487,487,487,487,487,511,496,510,510,518,502,519,508,506
489,489,489,489,489,489,489,489,489,511,498,510,510,518,500,519,508,507
489,489,489,489,489,489,489,489,489,511,499,511,511,516,500,519,508,507
491,491,491,491,491,491,491,491,491,511,499,511,510,516,501,519,508,505
492,492,492,492,492,492,492,492,492,511,499,511,510,515,502,519,508,507
492,492,492,492,492,492,492,492,492,511,499,511,510,515,501,519,508,505
492,492,492,492,492,492,492,492,492,511,499,511,510,513,502,519,510,507
492,492,492,492,492,492,492,492,492,511,499,511,510,513,502,519,510,507
492,492,492,492,492,492,492,492,492,512,499,511,510,513,502,519,510,508
492,492,492,492,492,492,492,492,492,513,499,511,510,513,500,519,510,508
492,492,492,492,492,492,492,492,492,512,497,511,510,513,501,519,510,508
492,492,492,492,492,492,492,492,492,513,497,511,510,512,502,519,510,508
496,496,496,496,496,496,496,496,496,515,499,512,508,512,500,519,511,508
500,500,500,500,500,500,500,500,500,515,499,512,508,511,500,519,510,508
508,508,508,508,508,508,508,508,508,515,500,512,508,510,499,519,510,510
515,515,515,515,515,515,515,515,515,516,502,511,508,510,500,519,510,511
527,527,527,527,527,527,527,527,527,518,504,511,508,510,501,519,510,511
539,539,539,539,539,539,539,539,539,518,507,512,507,508,503,518,510,511
551,551,551,551,551,551,551,551,551,518,508,511,505,508,504,518,510,511
561,561,561,561,561,561,561,561,561,516,512,511,505,507,507,518,510,512
572,572,572,572,572,572,572,572,572,515,516,511,505,508,510,518,510,512
579,579,579,579,579,579,579,579,579,515,521,511,507,508,513,517,510,512
584,584,584,584,584,584,584,584,584,515,527,512,507,508,516,518,510,512
588,588,588,588,588,588,588,588,588,514,531,511,507,508,519,516,508,512
588,588,588,588,588,588,588,588,588,513,537,511,507,508,524,515,508,512
587,587,587,587,587,587,587,587,587,513,542,510,507,509,526,515,508,512
582,582,582,582,582,582,582,582,582,512,547,511,508,510,527,515,508,512
575,575,575,575,575,575,575,575,575,512,549,511,508,511,528,515,508,512
567,567,567,567,567,567,567,567,567,510,551,510,508,511,529,515,508,512
557,557,557,557,557,557,557,557,557,510,551,510,508,511,531,513,508,512
547,547,547,547,547,547,547,547,547,509,550,509,508,511,531,513,508,512
539,539,539,539,539,539,539,539,539,509,547,510,507,510,531,513,508,512
529,529,529,529,529,529,529,529,529,508,543,508,508,510,529,512,508,512
520,520,520,520,520,520,520,520,520,508,540,508,508,510,528,512,508,511
512,512,512,512,512,512,512,512,512,508,536,508,508,509,527,512,508,511
505,505,505,505,505,505,505,505,505,508,531,508,508,508,524,512,508,511
499,499,499,499,499,499,499,499,499,508,526,509,509,508,523,512,508,511
494,494,494,494,494,494,494,494,494,508,519,510,510,508,519,512,508,510
489,489,489,489,489,489,489,489,489,505,515,509,511,508,519,512,507,508
487,487,487,487,487,487,487,487,487,505,511,508,512,507,516,511,507,508
485,485,485,485,485,485,485,485,485,505,507,508,512,507,515,512,505,508
486,486,486,486,486,486,486,486,486,505,504,508,511,507,514,512,505,508
488,488,488,488,488,488,488,488,488,504,499,508,511,508,513,512,507,507
492,492,492,492,492,492,492,492,492,504,497,508,508,508,511,512,508,508
496,496,496,496,496,496,496,496,496,504,496,508,508,508,511,512,508,508
500,500,500,500,500,500,500,500,500,505,495,508,507,508,509,513,508,508
504,504,504,504,504,504,504,504,504,505,494,508,505,508,508,512,510,508
510,510,510,510,510,510,510,510,510,505,494,510,504,507,508,512,511,508
515,515,515,515,515,515,515,515,515,504,494,510,505,507,508,512,511,508
518,518,518,518,518,518,518,518,518,505,495,510,505,507,508,513,512,510
519,519,519,519,519,519,519,519,519,505,496,510,507,507,508,513,513,510
521,521,521,521,521,521,521,521,521,505,497,510,507,506,508,513,514,509
524,524,524,524,524,524,524,524,524,505,499,508,508,505,508,512,515,509
524,524,524,524,524,524,524,524,524,505,502,510,508,507,507,512,515,510
524,524,524,524,524,524,524,524,524,505,504,510,508,505,507,512,515,510
524,524,524,524,524,524,524,524,524,505,504,511,510,505,507,512,515,510
521,521,521,521,521,521,521,521,521,507,507,511,510,505,507,512,515,510
519,519,519,519,519,519,519,519,519,507,508,511,509,505,507,512,515,510
515,515,515,515,515,515,515,515,515,505,510,511,510,505,507,512,515,509
513,513,513,513,513,513,513,513,513,507,511,511,511,504,508,512,515,508
510,510,510,510,510,510,510,510,510,508,512,512,511,504,508,513,515,509
507,507,507,507,507,507,507,507,507,508,513,512,511,504,506,512,515,508
504,504,504,504,504,504,504,504,504,507,513,512,512,504,507,513,513,508
500,500,500,500,500,500,500,500,500,507,512,512,513,504,505,513,512,508
497,497,497,497,497,497,497,497,497,507,511,512,513,505,504,513,512,508
494,494,494,494,494,494,494,494,494,504,510,512,514,508,504,513,511,508
492,492,492,492,492,492,492,492,492,504,508,512,513,510,504,514,510,508
489,489,489,489,489,489,489,489,489,504,507,512,513,511,504,513,510,508
487,487,487,487,487,487,487,487,487,504,505,512,513,512,503,515,510,507
486,486,486,486,486,486,486,486,486,504,504,512,513,515,504,515,510,505
486,486,486,486,486,486,486,486,486,502,504,511,513,516,504,515,510,505
486,486,486,486,486,486,486,486,486,500,504,511,512,518,504,515,508,505
486,486,486,486,486,486,486,486,486,500,504,512,511,519,504,515,508,504
486,486,486,486,486,486,486,486,486,499,504,511,511,519,504,517,508,504
486,486,486,486,486,486,486,486,486,499,504,511,510,520,504,518,508,504
487,487,487,487,487,487,487,487,487,499,504,511,510,521,504,518,508,504
487,487,487,487,487,487,487,487,487,499,504,512,508,521,504,518,508,504
487,487,487,487,487,487,487,487,487,499,503,512,508,520,504,518,508,504
489,489,489,489,489,489,489,489,489,499,504,511,508,519,504,519,508,505
489,489,489,489,489,489,489,489,489,499,502,511,508,519,503,518,508,505
491,491,491,491,491,491,491,491,491,499,500,511,509,518,503,518,508,505
492,492,492,492,492,492,492,492,492,499,499,510,510,516,502,518,509,505
492,492,492,492,492,492,492,492,492,499,499,509,511,515,501,516,510,505
492,492,492,492,492,492,492,492,492,499,499,508,511,515,500,516,509,505
494,494,494,494,494,494,494,494,494,499,497,508,511,515,499,515,508,507
495,495,495,495,495,495,495,495,495,499,498,508,511,514,499,515,508,507
496,496,496,496,496,496,496,496,496,500,498,508,510,513,499,515,508,508
496,496,496,496,496,496,496,496,496,500,497,509,510,513,499,515,508,508
496,496,496,496,496,496,496,496,496,502,497,508,510,513,499,515,508,508
496,496,496,496,496,496,496,496,496,500,499,508,510,512,499,513,510,509
496,496,496,496,496,496,496,496,496,500,498,508,510,511,499,513,508,510
496,496,496,496,496,496,496,496,496,500,497,508,510,511,499,513,510,509
496,496,496,496,496,496,496,496,496,499,499,510,510,511,499,513,509,510
496,496,496,496,496,496,496,496,496,500,499,508,509,511,499,513,510,511
499,499,499,499,499,499,499,499,499,501,499,510,508,510,501,515,508,511
504,504,504,504,504,504,504,504,504,502,499,509,508,510,502,515,508,511
510,510,510,510,510,510,510,510,510,504,500,510,508,508,502,515,508,511
519,519,519,519,519,519,519,519,519,504,502,511,508,508,502,513,508,511
528,528,528,528,528,528,528,528,528,504,502,510,508,508,503,513,508,511
540,540,540,540,540,540,540,540,540,504,502,510,508,508,503,513,508,510
551,551,551,551,551,551,551,551,551,504,503,510,508,507,504,513,508,510
561,561,561,561,561,561,561,561,561,504,504,509,508,505,503,515,508,510
572,572,572,572,572,572,572,572,572,505,505,510,507,505,504,515,508,510
579,579,579,579,579,579,579,579,579,508,508,510,505,505,504,515,508,510
583,583,583,583,583,583,583,583,583,508,512,510,506,505,504,515,508,511
584,584,584,584,584,584,584,584,584,510,516,511,505,505,504,513,510,511
583,583,583,583,583,583,583,583,583,510,521,510,505,507,504,513,510,511
582,582,582,582,582,582,582,582,582,511,527,510,505,507,504,513,510,511
575,575,575,575,575,575,575,575,575,511,534,510,506,508,504,513,510,511
569,569,569,569,569,569,569,569,569,512,540,510,505,508,504,513,510,511
563,563,563,563,563,563,563,563,563,513,544,510,505,508,504,513,510,510
555,555,555,555,555,555,555,555,555,513,548,510,505,508,505,512,511,510
545,545,545,545,545,545,545,545,545,513,551,509,505,507,507,512,510,510
537,537,537,537,537,537,537,537,537,515,553,508,507,507,508,512,510,510
527,527,527,527,527,527,527,527,527,515,553,508,507,507,511,512,511,509
519,519,519,519,519,519,519,519,519,516,553,508,507,508,512,512,511,510
512,512,512,512,512,512,512,512,512,516,551,509,507,507,515,511,511,510
504,504,504,504,504,504,504,504,504,518,547,509,507,508,519,511,511,509
497,497,497,497,497,497,497,497,497,518,543,510,507,507,519,511,511,509
492,492,492,492,492,492,492,492,492,518,537,510,507,507,523,511,512,510
487,487,487,487,487,487,487,487,487,516,531,510,507,508,524,511,512,510
486,486,486,486,486,486,486,486,486,516,526,509,507,508,526,511,513,509
483,483,483,483,483,483,483,483,483,515,520,510,507,509,527,511,513,510
483,483,483,483,483,483,483,483,483,515,515,508,505,510,527,511,515,508
486,486,486,486,486,486,486,486,486,515,511,508,506,510,527,511,513,508
488,488,488,488,488,488,488,488,488,515,505,508,507,511,527,511,515,508
492,492,492,492,492,492,492,492,492,515,503,510,507,510,527,511,515,507
496,496,496,496,496,496,496,496,496,515,499,510,507,511,527,511,515,508
502,502,502,502,502,502,502,502,502,515,497,510,507,511,524,511,515,507
505,505,505,505,505,505,505,505,505,514,496,510,508,512,524,512,515,507
510,510,510,510,510,510,510,510,510,513,494,511,507,512,520,511,515,507
513,513,513,513,513,513,513,513,513,512,493,510,508,511,519,511,514,508
516,516,516,516,516,516,516,516,516,511,492,511,508,511,515,512,513,508
519,519,519,519,519,519,519,519,519,511,492,511,507,511,513,511,513,508
520,520,520,520,520,520,520,520,520,511,494,511,507,510,511,512,513,508
521,521,521,521,521,521,521,521,521,511,495,512,507,508,510,512,513,508
521,521,521,521,521,521,521,521,521,510,496,511,505,507,508,512,513,508
521,521,521,521,521,521,521,521,521,509,499,512,505,507,507,512,512,508
519,519,519,519,519,519,519,519,519,509,499,511,505,506,505,511,512,508
518,518,518,518,518,518,518,518,518,508,503,512,505,505,505,511,512,508
515,515,515,515,515,515,515,515,515,508,504,511,507,508,504,512,511,508
512,512,512,512,512,512,512,512,512,508,505,512,508,508,504,512,511,508
509,509,509,509,509,509,509,509,509,507,505,512,509,510,504,512,511,509
504,504,504,504,504,504,504,504,504,507,508,512,511,511,505,512,511,510
502,502,502,502,502,502,502,502,502,505,508,512,510,513,505,513,511,510
499,499,499,499,499,499,499,499,499,507,510,512,511,515,507,513,512,511
496,496,496,496,496,496,496,496,496,507,511,512,511,516,508,515,512,511
494,494,494,494,494,494,494,494,494,507,512,512,511,518,508,515,512,512
491,491,491,491,491,491,491,491,491,507,512,512,511,519,508,516,512,512
487,487,487,487,487,487,487,487,487,507,511,512,512,519,508,516,512,512
484,484,484,484,484,484,484,484,484,508,511,512,512,519,509,518,512,512
483,483,483,483,483,483,483,483,483,508,510,512,512,519,510,517,512,512
481,481,481,481,481,481,481,481,481,508,510,512,512,518,508,518,512,512
480,480,480,480,480,480,480,480,480,508,508,512,512,518,508,519,512,512
480,480,480,480,480,480,480,480,480,508,505,511,512,519,508,519,512,512
480,480,480,480,480,480,480,480,480,507,504,511,512,519,507,518,512,512
480,480,480,480,480,480,480,480,480,507,504,511,512,519,507,518,512,512
481,481,481,481,481,481,481,481,481,507,502,511,512,519,505,517,512,511
483,483,483,483,483,483,483,483,483,507,499,510,512,518,505,516,512,511
484,484,484,484,484,484,484,484,484,505,499,510,511,518,505,516,512,511
487,487,487,487,487,487,487,487,487,505,499,510,511,518,505,515,512,511
487,487,487,487,487,487,487,487,487,505,499,508,511,516,505,515,512,511
491,491,491,491,491,491,491,491,491,505,499,508,512,515,504,515,512,511
492,492,492,492,492,492,492,492,492,505,497,508,512,515,504,515,511,511
492,492,492,492,492,492,492,492,492,504,497,508,512,515,504,515,511,511
492,492,492,492,492,492,492,492,492,504,497,508,512,513,503,515,511,511
492,492,492,492,492,492,492,492,492,504,496,508,513,512,502,513,510,510
492,492,492,492,492,492,492,492,492,504,496,508,513,511,500,513,509,511
492,492,492,492,492,492,492,492,492,504,496,508,513,511,499,513,508,510
492,492,492,492,492,492,492,492,492,504,497,508,512,510,500,512,508,510
492,492,492,492,492,492,492,492,492,504,497,508,512,508,500,512,508,510
494,494,494,494,494,494,494,494,494,504,498,508,511,508,501,512,508,510
496,496,496,496,496,496,496,496,496,504,497,508,510,508,502,512,508,508
502,502,502,502,502,502,502,502,502,503,498,508,510,507,503,512,508,508
508,508,508,508,508,508,508,508,508,502,499,508,510,507,504,511,507,508
515,515,515,515,515,515,515,515,515,503,499,509,510,505,504,511,508,508
524,524,524,524,524,524,524,524,524,502,499,510,509,507,504,512,508,508
536,536,536,536,536,536,536,536,536,502,499,509,510,508,504,512,508,508
543,543,543,543,543,543,543,543,543,502,500,510,508,508,504,512,508,508
555,555,555,555,555,555,555,555,555,502,502,510,508,508,503,512,508,508
563,563,563,563,563,563,563,563,563,502,501,510,508,508,502,513,508,508
568,568,568,568,568,568,568,568,568,502,502,510,508,510,502,512,507,508
572,572,572,572,572,572,572,572,572,502,502,510,508,509,500,512,506,508
575,575,575,575,575,575,575,575,575,503,502,510,508,510,500,512,505,508
575,575,575,575,575,575,575,575,575,504,504,510,508,510,500,512,505,508
575,575,575,575,575,575,575,575,575,504,504,508,508,510,500,512,505,508
572,572,572,572,572,572,572,572,572,505,507,510,509,508,502,512,505,508
568,568,568,568,568,568,568,568,568,508,508,510,508,508,503,512,507,510
560,560,560,560,560,560,560,560,560,509,511,510,508,508,504,512,505,510
551,551,551,551,551,551,551,551,551,510,513,511,508,507,504,512,507,510
543,543,543,543,543,543,543,543,543,511,518,511,508,507,504,512,508,510
536,536,536,536,536,536,536,536,536,511,521,511,508,507,504,512,508,510
527,527,527,527,527,527,527,527,527,512,527,511,508,507,504,513,510,510
519,519,519,519,519,519,519,519,519,513,536,512,509,506,504,512,511,510
511,511,511,511,511,511,511,511,511,514,540,511,510,505,505,512,512,510
504,504,504,504,504,504,504,504,504,515,546,512,509,505,508,512,512,510
497,497,497,497,497,497,497,497,497,516,551,511,509,504,511,512,513,510
492,492,492,492,492,492,492,492,492,518,555,511,509,504,513,512,513,509
487,487,487,487,487,487,487,487,487,517,556,510,508,504,515,512,515,510
484,484,484,484,484,484,484,484,484,518,557,510,508,504,519,512,515,510
483,483,483,483,483,483,483,483,483,518,556,510,508,504,521,512,515,510
483,483,483,483,483,483,483,483,483,518,553,510,507,504,524,511,515,510
483,483,483,483,483,483,483,483,483,516,548,510,507,504,526,511,515,510
487,487,487,487,487,487,487,487,487,515,543,510,505,504,527,511,514,510
489,489,489,489,489,489,489,489,489,515,539,510,505,504,527,511,513,511
494,494,494,494,494,494,494,494,494,513,534,510,505,504,527,511,512,511
497,497,497,497,497,497,497,497,497,512,527,510,505,504,527,511,512,511
504,504,504,504,504,504,504,504,504,512,521,510,505,504,528,511,511,511
508,508,508,508,508,508,508,508,508,511,515,510,507,504,527,511,510,511
512,512,512,512,512,512,512,512,512,510,510,510,508,504,526,511,508,511
515,515,515,515,515,515,515,515,515,508,505,510,508,504,524,511,508,511
518,518,518,518,518,518,518,518,518,508,504,509,508,504,521,511,507,511
519,519,519,519,519,519,519,519,519,508,499,510,508,504,519,511,505,511
519,519,519,519,519,519,519,519,519,507,497,510,509,504,516,510,505,512
519,519,519,519,519,519,519,519,519,507,496,510,510,504,515,511,505,511
518,518,518,518,518,518,518,518,518,507,495,511,510,504,512,511,505,512
516,516,516,516,516,516,516,516,516,507,494,511,510,504,511,511,505,512
515,515,515,515,515,515,515,515,515,507,492,511,510,504,508,511,505,512
512,512,512,512,512,512,512,512,512,505,493,511,510,505,508,511,504,512
509,509,509,509,509,509,509,509,509,505,494,511,509,507,505,512,505,512
507,507,507,507,507,507,507,507,507,505,496,511,508,508,504,512,504,511
504,504,504,504,504,504,504,504,504,505,496,511,508,508,504,512,505,511
499,499,499,499,499,499,499,499,499,505,497,511,508,511,504,513,505,511
496,496,496,496,496,496,496,496,496,504,499,511,506,512,504,515,507,512
495,495,495,495,495,495,495,495,495,504,502,511,505,512,504,515,507,512
492,492,492,492,492,492,492,492,492,504,504,511,505,514,504,515,507,512
492,492,492,492,492,492,492,492,492,504,507,510,504,515,505,515,508,512
489,489,489,489,489,489,489,489,489,504,508,510,504,515,505,515,508,512
487,487,487,487,487,487,487,487,487,504,510,510,504,515,505,515,508,512
486,486,486,486,486,486,486,486,486,505,511,510,505,515,508,515,508,512
486,486,486,486,486,486,486,486,486,505,511,510,505,515,508,516,510,513
485,485,485,485,485,485,485,485,485,507,511,511,505,515,508,516,510,512
484,484,484,484,484,484,484,484,484,507,511,511,505,515,509,516,510,512
483,483,483,483,483,483,483,483,483,508,511,511,507,515,510,515,510,512
483,483,483,483,483,483,483,483,483,508,510,510,507,515,508,515,510,512
481,481,481,481,481,481,481,481,481,508,510,511,507,515,510,515,510,511
481,481,481,481,481,481,481,481,481,507,509,511,508,515,510,515,510,511
481,481,481,481,481,481,481,481,481,507,510,511,508,515,510,515,510,510
483,483,483,483,483,483,483,483,483,507,508,511,510,515,510,515,510,508
483,483,483,483,483,483,483,483,483,507,508,511,511,513,510,515,510,509
485,485,485,485,485,485,485,485,485,507,507,511,512,513,509,515,508,508
487,487,487,487,487,487,487,487,487,506,507,511,512,513,508,514,508,508
487,487,487,487,487,487,487,487,487,505,505,510,513,513,507,513,508,508
489,489,489,489,489,489,489,489,489,505,504,510,512,512,505,512,508,508
489,489,489,489,489,489,489,489,489,504,504,510,513,512,505,513,508,510
491,491,491,491,491,491,491,491,491,504,504,510,512,511,504,512,508,508
492,492,492,492,492,492,492,492,492,504,504,510,513,511,504,512,508,509
492,492,492,492,492,492,492,492,492,504,502,510,513,510,504,512,508,510
493,493,493,493,493,493,493,493,493,504,500,508,513,508,503,512,507,510
494,494,494,494,494,494,494,494,494,503,500,510,512,508,503,512,508,510
496,496,496,496,496,496,496,496,496,502,499,510,512,507,502,512,507,510
497,497,497,497,497,497,497,497,497,500,497,508,512,506,500,512,507,508
502,502,502,502,502,502,502,502,502,499,497,508,512,505,499,511,507,508
508,508,508,508,508,508,508,508,508,499,496,508,512,505,499,511,507,508
516,516,516,516,516,516,516,516,516,499,496,507,512,506,499,512,508,509
526,526,526,526,526,526,526,526,526,499,496,508,512,507,499,511,508,509
536,536,536,536,536,536,536,536,536,497,496,508,512,508,499,512,508,510
547,547,547,547,547,547,547,547,547,497,496,508,512,508,499,511,510,510
556,556,556,556,556,556,556,556,556,499,496,508,512,509,500,512,511,509
566,566,566,566,566,566,566,566,566,499,496,508,511,508,500,511,512,509
574,574,574,574,574,574,574,574,574,500,497,508,511,508,502,512,512,510
579,579,579,579,579,579,579,579,579,503,497,508,512,508,502,511,513,510
583,583,583,583,583,583,583,583,583,504,499,508,512,508,503,512,513,510
583,583,583,583,583,583,583,583,583,504,499,508,511,508,502,512,515,510
582,582,582,582,582,582,582,582,582,505,499,510,511,510,504,512,515,510
579,579,579,579,579,579,579,579,579,508,500,510,511,510,504,512,515,511
574,574,574,574,574,574,574,574,574,508,502,511,511,509,504,512,515,510
568,568,568,568,568,568,568,568,568,510,503,510,511,510,504,513,514,510
561,561,561,561,561,561,561,561,561,510,504,511,511,510,504,513,513,510
551,551,551,551,551,551,551,551,551,511,505,511,510,508,504,512,513,510
543,543,543,543,543,543,543,543,543,513,507,511,510,508,504,512,512,510
536,536,536,536,536,536,536,536,536,515,510,511,510,508,504,512,512,510
527,527,527,527,527,527,527,527,527,515,513,511,508,508,504,512,512,511
519,519,519,519,519,519,519,519,519,515,518,511,508,507,504,513,512,512
511,511,511,511,511,511,511,511,511,517,521,512,508,505,504,513,511,513
504,504,504,504,504,504,504,504,504,517,527,512,508,505,505,513,511,513
497,497,497,497,497,497,497,497,497,518,531,513,508,505,509,513,510,515
492,492,492,492,492,492,492,492,492,518,536,513,508,505,512,513,508,515
488,488,488,488,488,488,488,488,488,516,542,512,508,504,515,512,508,515
487,487,487,487,487,487,487,487,487,516,543,512,508,504,518,512,508,515
487,487,487,487,487,487,487,487,487,518,547,512,508,504,519,512,508,515
487,487,487,487,487,487,487,487,487,518,551,512,508,505,523,512,508,515
488,488,488,488,488,488,488,488,488,516,550,512,508,505,524,511,508,515
492,492,492,492,492,492,492,492,492,516,550,512,508,505,527,511,508,515
495,495,495,495,495,495,495,495,495,516,547,512,508,505,529,511,508,515
499,499,499,499,499,499,499,499,499,518,545,512,508,505,530,511,508,513
504,504,504,504,504,504,504,504,504,518,542,512,508,505,531,511,508,513
508,508,508,508,508,508,508,508,508,518,536,511,508,507,531,511,508,512
512,512,512,512,512,512,512,512,512,518,531,511,508,507,530,511,508,512
516,516,516,516,516,516,516,516,516,517,527,511,508,508,529,511,509,512
519,519,519,519,519,519,519,519,519,515,523,511,508,508,528,511,509,511
520,520,520,520,520,520,520,520,520,515,518,510,508,509,527,511,510,511
521,521,521,521,521,521,521,521,521,515,512,510,508,510,524,511,510,511
519,519,519,519,519,519,519,519,519,513,508,510,508,512,521,511,510,510
519,519,519,519,519,519,519,519,519,512,504,509,508,513,519,511,510,510
516,516,516,516,516,516,516,516,516,512,499,508,508,515,518,511,508,510
515,515,515,515,515,515,515,515,515,512,496,508,508,515,517,511,509,509
511,511,511,511,511,511,511,511,511,512,495,508,508,517,515,511,508,508
508,508,508,508,508,508,508,508,508,511,492,508,508,519,515,511,508,508
505,505,505,505,505,505,505,505,505,511,492,508,508,519,513,511,509,508
504,504,504,504,504,504,504,504,504,511,492,508,508,519,513,512,508,508
502,502,502,502,502,502,502,502,502,510,492,508,508,519,512,512,509,508
499,499,499,499,499,499,499,499,499,508,492,508,510,519,511,513,508,508
497,497,497,497,497,497,497,497,497,508,494,508,510,519,511,513,510,508
495,495,495,495,495,495,495,495,495,509,494,508,509,519,510,515,508,508
492,492,492,492,492,492,492,492,492,508,496,508,510,517,510,515,508,508
491,491,491,491,491,491,491,491,491,508,497,508,510,515,510,515,508,508
487,487,487,487,487,487,487,487,487,508,499,508,510,513,508,515,508,508
487,487,487,487,487,487,487,487,487,508,502,508,510,513,510,515,508,508
484,484,484,484,484,484,484,484,484,508,504,508,508,512,509,515,508,508
483,483,483,483,483,483,483,483,483,508,507,508,508,512,510,516,508,508
481,481,481,481,481,481,481,481,481,508,508,508,508,511,510,515,508,508
480,480,480,480,480,480,480,480,480,508,510,510,508,512,510,516,507,509
480,480,480,480,480,480,480,480,480,508,511,510,508,511,510,515,508,510
480,480,480,480,480,480,480,480,480,508,511,510,508,511,509,515,508,510
481,481,481,481,481,481,481,481,481,508,512,511,507,511,510,516,508,511
483,483,483,483,483,483,483,483,483,508,512,511,506,510,510,515,510,511
483,483,483,483,483,483,483,483,483,508,512,511,507,509,510,516,511,511
486,486,486,486,486,486,486,486,486,508,512,511,508,508,509,516,512,511
487,487,487,487,487,487,487,487,487,508,511,511,508,508,508,516,514,512
487,487,487,487,487,487,487,487,487,507,510,511,508,508,508,515,515,512
487,487,487,487,487,487,487,487,487,507,508,511,510,508,508,515,515,512
489,489,489,489,489,489,489,489,489,505,508,510,511,508,507,515,515,512
491,491,491,491,491,491,491,491,491,505,508,511,511,508,506,515,515,512
492,492,492,492,492,492,492,492,492,504,505,510,512,508,505,515,515,512
492,492,492,492,492,492,492,492,492,504,504,510,512,508,505,513,515,512
492,492,492,492,492,492,492,492,492,504,503,510,512,508,505,513,515,511
492,492,492,492,492,492,492,492,492,504,500,510,512,508,504,513,515,511
493,493,493,493,493,493,493,493,493,504,499,510,513,508,504,512,513,510
492,492,492,492,492,492,492,492,492,504,497,511,513,508,504,513,512,510
492,492,492,492,492,492,492,492,492,504,497,511,513,508,504,513,512,508
492,492,492,492,492,492,492,492,492,504,496,511,512,508,504,512,512,508
495,495,495,495,495,495,495,495,495,505,495,510,513,507,504,512,511,508
499,499,499,499,499,499,499,499,499,505,496,511,512,507,504,512,511,508
504,504,504,504,504,504,504,504,504,505,496,511,512,507,504,512,511,508
511,511,511,511,511,511,511,511,511,504,496,511,512,508,504,512,510,508
519,519,519,519,519,519,519,519,519,504,495,511,512,508,504,512,510,508
531,531,531,531,531,531,531,531,531,504,496,510,511,508,504,512,508,508
541,541,541,541,541,541,541,541,541,504,496,510,511,510,504,512,508,508
551,551,551,551,551,551,551,551,551,503,496,511,510,510,504,512,508,508
561,561,561,561,561,561,561,561,561,502,497,510,510,510,504,512,508,508
568,568,568,568,568,568,568,568,568,502,499,511,510,510,504,511,508,508
574,574,574,574,574,574,574,574,574,502,499,511,510,509,504,512,508,508
577,577,577,577,577,577,577,577,577,502,499,511,510,508,504,511,508,508
579,579,579,579,579,579,579,579,579,503,499,511,508,508,504,511,508,510
579,579,579,579,579,579,579,579,579,504,500,511,509,508,504,512,508,511
575,575,575,575,575,575,575,575,575,504,502,511,508,505,504,511,509,511
572,572,572,572,572,572,572,572,572,505,503,511,509,507,503,511,509,512
568,568,568,568,568,568,568,568,568,508,504,512,510,505,502,512,510,512
560,560,560,560,560,560,560,560,560,508,504,511,510,505,502,512,510,513
552,552,552,552,552,552,552,552,552,510,504,512,508,504,502,512,510,513
543,543,543,543,543,543,543,543,543,511,504,512,508,504,502,512,511,512
536,536,536,536,536,536,536,536,536,512,504,511,508,504,502,512,511,512
526,526,526,526,526,526,526,526,526,513,504,511,508,504,503,511,511,512
518,518,518,518,518,518,518,518,518,515,505,511,508,504,503,511,511,512
509,509,509,509,509,509,509,509,509,515,507,511,508,504,504,511,511,511
502,502,502,502,502,502,502,502,502,515,510,511,508,505,504,511,511,511
495,495,495,495,495,495,495,495,495,518,513,511,508,505,505,511,511,511
489,489,489,489,489,489,489,489,489,518,516,511,508,505,507,512,510,511
486,486,486,486,486,486,486,486,486,518,519,511,508,505,508,512,510,511
483,483,483,483,483,483,483,483,483,518,525,511,508,507,510,512,511,511
483,483,483,483,483,483,483,483,483,518,529,511,508,508,512,512,510,510
483,483,483,483,483,483,483,483,483,517,536,511,508,508,515,512,510,510
487,487,487,487,487,487,487,487,487,516,540,510,508,508,519,511,509,510
491,491,491,491,491,491,491,491,491,516,543,510,508,508,522,512,509,510
496,496,496,496,496,496,496,496,496,515,546,510,508,510,525,512,508,510
501,501,501,501,501,501,501,501,501,515,547,509,508,511,528,512,508,509
505,505,505,505,505,505,505,505,505,515,548,508,508,512,531,512,508,510
510,510,510,510,510,510,510,510,510,515,547,510,508,515,533,512,508,510
513,513,513,513,513,513,513,513,513,515,547,509,508,515,534,512,508,510
519,519,519,519,519,519,519,519,519,515,543,508,507,518,535,512,508,510
519,519,519,519,519,519,519,519,519,513,542,509,507,519,534,512,508,510
521,521,521,521,521,521,521,521,521,513,537,509,507,519,532,513,509,511
521,521,521,521,521,521,521,521,521,513,532,508,507,519,531,513,508,511
520,520,520,520,520,520,520,520,520,512,527,508,507,521,529,515,510,511
519,519,519,519,519,519,519,519,519,512,523,508,507,520,527,514,510,511
518,518,518,518,518,518,518,518,518,511,518,508,505,520,526,515,510,511
515,515,515,515,515,515,515,515,515,511,512,508,507,520,526,515,511,511
512,512,512,512,512,512,512,512,512,511,506,508,507,519,524,515,512,511
508,508,508,508,508,508,508,508,508,511,502,508,507,519,523,515,512,511
504,504,504,504,504,504,504,504,504,510,497,508,507,519,519,515,512,510
503,503,503,503,503,503,503,503,503,510,495,508,507,519,518,515,513,509
499,499,499,499,499,499,499,499,499,510,492,508,508,518,516,515,515,510
496,496,496,496,496,496,496,496,496,510,491,508,508,516,515,515,515,509
493,493,493,493,493,493,493,493,493,510,491,508,508,515,513,515,515,508
491,491,491,491,491,491,491,491,491,510,491,508,508,515,512,515,515,509
487,487,487,487,487,487,487,487,487,510,491,508,508,515,512,515,515,508
487,487,487,487,487,487,487,487,487,509,492,509,509,513,511,515,515,509
487,487,487,487,487,487,487,487,487,509,494,508,510,512,510,515,515,508
486,486,486,486,486,486,486,486,486,508,496,508,510,512,511,515,515,510
486,486,486,486,486,486,486,486,486,509,496,508,510,511,511,515,515,510
486,486,486,486,486,486,486,486,486,508,499,508,510,511,511,515,514,510
486,486,486,486,486,486,486,486,486,508,500,508,510,510,511,515,513,510
487,487,487,487,487,487,487,487,487,508,502,509,509,510,511,514,512,510
487,487,487,487,487,487,487,487,487,508,504,510,508,510,512,513,512,510
487,487,487,487,487,487,487,487,487,507,505,510,508,510,512,513,511,510
487,487,487,487,487,487,487,487,487,505,508,510,508,510,512,513,511,510
487,487,487,487,487,487,487,487,487,505,508,510,508,509,512,513,511,509
487,487,487,487,487,487,487,487,487,505,510,510,507,510,512,513,510,509
487,487,487,487,487,487,487,487,487,504,511,510,508,508,512,513,510,509
487,487,487,487,487,487,487,487,487,504,511,511,507,508,512,513,510,509
487,487,487,487,487,487,487,487,487,504,512,512,507,508,512,515,510,510
487,487,487,487,487,487,487,487,487,504,513,511,508,508,512,515,510,510
488,488,488,488,488,488,488,488,488,505,512,512,507,508,512,515,510,509
489,489,489,489,489,489,489,489,489,505,512,512,508,508,512,515,510,508
491,491,491,491,491,491,491,491,491,504,511,512,508,508,511,515,511,508
491,491,491,491,491,491,491,491,491,504,510,512,509,508,511,515,511,508
491,491,491,491,491,491,491,491,491,504,508,512,510,508,510,515,510,508
492,492,492,492,492,492,492,492,492,504,508,512,511,508,510,513,511,508
492,492,492,492,492,492,492,492,492,504,507,513,512,508,508,513,511,508
492,492,492,492,492,492,492,492,492,504,505,513,513,508,508,513,511,507
492,492,492,492,492,492,492,492,492,505,504,512,513,508,507,513,511,507
492,492,492,492,492,492,492,492,492,505,503,513,513,508,505,513,511,507
493,493,493,493,493,493,493,493,493,504,503,513,515,508,504,513,511,507
496,496,496,496,496,496,496,496,496,504,502,513,515,508,504,512,511,508
502,502,502,502,502,502,502,502,502,504,499,513,515,508,504,512,510,508
508,508,508,508,508,508,508,508,508,504,499,512,515,508,502,511,511,508
518,518,518,518,518,518,518,518,518,504,499,512,515,507,502,511,510,510
527,527,527,527,527,527,527,527,527,504,498,512,515,508,502,511,511,510
537,537,537,537,537,537,537,537,537,504,497,511,514,507,502,511,511,511
547,547,547,547,547,547,547,547,547,504,496,511,513,507,502,511,511,511
558,558,558,558,558,558,558,558,558,504,496,511,513,508,502,511,510,511
566,566,566,566,566,566,566,566,566,504,496,510,513,508,503,511,508,511
573,573,573,573,573,573,573,573,573,504,496,508,512,508,503,511,508,511
577,577,577,577,577,577,577,577,577,504,496,508,512,507,503,511,508,510
579,579,579,579,579,579,579,579,579,504,496,508,512,507,503,511,508,511
579,579,579,579,579,579,579,579,579,504,496,508,512,507,503,511,508,510
577,577,577,577,577,577,577,577,577,504,496,508,511,505,503,511,508,510
575,575,575,575,575,575,575,575,575,504,497,508,511,505,502,511,507,510
569,569,569,569,569,569,569,569,569,504,497,508,511,505,502,511,507,510
561,561,561,561,561,561,561,561,561,505,497,508,510,505,502,511,507,508
553,553,553,553,553,553,553,553,553,507,499,508,509,505,502,512,508,508
543,543,543,543,543,543,543,543,543,508,499,508,509,505,502,511,508,508
536,536,536,536,536,536,536,536,536,510,499,508,510,505,503,511,508,509
527,527,527,527,527,527,527,527,527,511,500,508,509,505,503,511,510,508
519,519,519,519,519,519,519,519,519,512,499,508,508,505,503,511,510,509
510,510,510,510,510,510,510,510,510,514,500,508,508,505,503,511,511,509
503,503,503,503,503,503,503,503,503,515,502,510,508,505,503,511,512,510
496,496,496,496,496,496,496,496,496,516,504,510,508,505,504,511,513,511
490,490,490,490,490,490,490,490,490,518,507,509,508,507,504,511,513,511
487,487,487,487,487,487,487,487,487,519,510,510,508,508,504,511,515,511
484,484,484,484,484,484,484,484,484,519,513,510,509,508,504,511,515,511
483,483,483,483,483,483,483,483,483,519,519,510,508,510,504,511,515,512
486,486,486,486,486,486,486,486,486,519,524,510,509,510,507,512,515,512
487,487,487,487,487,487,487,487,487,519,529,510,510,511,508,512,516,512
492,492,492,492,492,492,492,492,492,519,536,511,510,512,510,513,516,512
496,496,496,496,496,496,496,496,496,519,540,511,510,515,512,512,515,512
501,501,501,501,501,501,501,501,501,518,545,510,510,515,515,513,516,512
505,505,505,505,505,505,505,505,505,518,547,511,510,516,519,513,516,512
510,510,510,510,510,510,510,510,510,516,551,511,510,518,523,514,516,511
513,513,513,513,513,513,513,513,513,515,551,511,510,518,526,515,515,511
515,515,515,515,515,515,515,515,515,515,551,510,510,519,529,515,515,511
518,518,518,518,518,518,518,518,518,513,551,508,510,519,531,515,514,511
518,518,518,518,518,518,518,518,518,512,547,510,510,518,534,515,513,510
517,517,517,517,517,517,517,517,517,512,543,509,510,518,536,515,513,510
515,515,515,515,515,515,515,515,515,511,540,508,509,516,536,515,512,509
515,515,515,515,515,515,515,515,515,510,535,508,510,516,536,516,511,510
513,513,513,513,513,513,513,513,513,510,528,508,510,515,536,516,511,510
512,512,512,512,512,512,512,512,512,508,521,509,510,515,536,516,510,508
511,511,511,511,511,511,511,511,511,508,518,509,508,515,532,516,510,508
508,508,508,508,508,508,508,508,508,508,512,510,508,515,531,516,510,508
507,507,507,507,507,507,507,507,507,508,507,510,508,515,529,516,508,508
504,504,504,504,504,504,504,504,504,508,502,510,508,513,527,515,508,508
500,500,500,500,500,500,500,500,500,508,499,510,508,513,524,515,508,508
497,497,497,497,497,497,497,497,497,508,496,510,508,513,521,515,508,508
495,495,495,495,495,495,495,495,495,508,492,510,508,513,519,515,508,507
492,492,492,492,492,492,492,492,492,508,491,510,508,512,518,515,507,505
491,491,491,491,491,491,491,491,491,508,489,510,508,512,516,515,507,505
487,487,487,487,487,487,487,487,487,508,490,510,508,512,515,513,507,505
487,487,487,487,487,487,487,487,487,508,491,510,508,511,513,513,508,505
486,486,486,486,486,486,486,486,486,508,492,510,508,510,512,513,508,505
484,484,484,484,484,484,484,484,484,508,494,511,508,510,511,513,508,505
483,483,483,483,483,483,483,483,483,508,495,511,510,508,509,513,508,507
483,483,483,483,483,483,483,483,483,508,496,511,508,508,508,514,508,508
483,483,483,483,483,483,483,483,483,507,498,511,508,508,508,514,508,508
483,483,483,483,483,483,483,483,483,507,499,511,510,508,508,515,508,508
483,483,483,483,483,483,483,483,483,507,504,512,508,508,507,515,508,508
484,484,484,484,484,484,484,484,484,505,504,512,508,508,507,515,508,508
484,484,484,484,484,484,484,484,484,505,506,512,508,508,508,515,508,508
486,486,486,486,486,486,486,486,486,504,508,512,508,508,508,515,509,508
487,487,487,487,487,487,487,487,487,504,508,512,510,508,509,515,509,510
488,488,488,488,488,488,488,488,488,504,510,512,509,508,510,515,510,510
489,489,489,489,489,489,489,489,489,504,511,512,510,508,510,515,510,508
492,492,492,492,492,492,492,492,492,504,512,512,508,508,510,515,510,509
492,492,492,492,492,492,492,492,492,504,513,512,508,508,511,515,510,508
494,494,494,494,494,494,494,494,494,504,513,512,508,508,512,515,510,510
494,494,494,494,494,494,494,494,494,504,515,512,508,508,512,515,510,510
496,496,496,496,496,496,496,496,496,504,515,512,508,508,512,515,508,510
496,496,496,496,496,496,496,496,496,504,515,512,508,508,512,515,510,511
496,496,496,496,496,496,496,496,496,504,513,512,508,508,512,515,510,511
496,496,496,496,496,496,496,496,496,504,512,512,508,508,511,515,510,511
496,496,496,496,496,496,496,496,496,504,510,511,508,508,510,515,508,511
497,497,497,497,497,497,497,497,497,504,508,511,509,508,508,515,508,511
500,500,500,500,500,500,500,500,500,504,507,511,510,508,508,515,508,511
505,505,505,505,505,505,505,505,505,505,504,511,511,509,508,515,508,511
512,512,512,512,512,512,512,512,512,505,504,510,511,510,505,515,508,511
520,520,520,520,520,520,520,520,520,505,503,510,511,510,505,515,508,511
529,529,529,529,529,529,529,529,529,505,500,510,511,509,504,515,508,510
540,540,540,540,540,540,540,540,540,505,499,509,512,508,504,515,508,510
549,549,549,549,549,549,549,549,549,504,499,509,512,508,504,515,508,510
556,556,556,556,556,556,556,556,556,505,499,508,512,508,504,515,508,510
563,563,563,563,563,563,563,563,563,505,497,510,513,508,503,513,508,510
568,568,568,568,568,568,568,568,568,505,496,510,513,508,502,514,508,511
571,571,571,571,571,571,571,571,571,505,496,508,513,507,501,513,508,510
572,572,572,572,572,572,572,572,572,505,496,508,513,507,500,513,510,510
572,572,572,572,572,572,572,572,572,505,496,508,513,507,500,512,511,510
569,569,569,569,569,569,569,569,569,505,496,508,512,507,499,512,512,510
566,566,566,566,566,566,566,566,566,504,496,508,513,507,499,511,512,509
560,560,560,560,560,560,560,560,560,504,496,508,513,508,499,510,513,508
551,551,551,551,551,551,551,551,551,504,497,508,513,507,499,510,513,508
543,543,543,543,543,543,543,543,543,504,497,508,512,508,499,509,514,509
536,536,536,536,536,536,536,536,536,505,499,508,512,507,500,510,515,509
528,528,528,528,528,528,528,528,528,505,499,508,511,507,501,509,515,510
519,519,519,519,519,519,519,519,519,508,502,509,511,508,502,510,515,511
513,513,513,513,513,513,513,513,513,508,502,510,510,508,502,510,515,510
505,505,505,505,505,505,505,505,505,510,504,510,510,508,504,511,514,510
499,499,499,499,499,499,499,499,499,511,508,510,511,511,504,511,513,510
495,495,495,495,495,495,495,495,495,512,512,510,511,512,504,512,513,511
491,491,491,491,491,491,491,491,491,513,518,508,511,513,504,512,513,510
487,487,487,487,487,487,487,487,487,513,523,510,511,514,504,512,512,510
486,486,486,486,486,486,486,486,486,515,529,510,511,515,504,513,512,510
486,486,486,486,486,486,486,486,486,515,536,510,511,518,505,513,511,509
486,486,486,486,486,486,486,486,486,515,542,510,512,518,504,513,511,508
487,487,487,487,487,487,487,487,487,516,547,510,512,519,505,514,511,508
492,492,492,492,492,492,492,492,492,516,551,510,512,519,504,515,511,508
496,496,496,496,496,496,496,496,496,518,553,509,512,519,504,515,510,509
500,500,500,500,500,500,500,500,500,518,556,510,513,519,504,515,510,508
505,505,505,505,505,505,505,505,505,518,557,508,512,519,504,517,509,508
510,510,510,510,510,510,510,510,510,518,556,510,512,519,503,518,510,508
512,512,512,512,512,512,512,512,512,518,551,509,511,518,503,518,510,510
515,515,515,515,515,515,515,515,515,515,548,509,511,516,502,518,510,511
518,518,518,518,518,518,518,518,518,515,543,510,511,515,502,519,510,511
519,519,519,519,519,519,519,519,519,515,537,510,510,515,502,519,510,511
519,519,519,519,519,519,519,519,519,513,531,511,510,515,501,519,510,511
519,519,519,519,519,519,519,519,519,513,525,510,510,513,500,519,510,512
518,518,518,518,518,518,518,518,518,512,519,511,508,512,501,519,510,512
516,516,516,516,516,516,516,516,516,512,515,511,508,512,502,519,510,511
515,515,515,515,515,515,515,515,515,512,510,511,508,512,504,519,510,511
512,512,512,512,512,512,512,512,512,511,505,511,508,511,505,519,510,511
509,509,509,509,509,509,509,509,509,511,502,512,508,512,509,519,509,510
505,505,505,505,505,505,505,505,505,511,497,512,508,511,512,518,508,510
504,504,504,504,504,504,504,504,504,511,496,512,509,511,515,518,508,510
502,502,502,502,502,502,502,502,502,510,494,512,510,511,519,517,508,510
498,498,498,498,498,498,498,498,498,510,492,512,510,511,522,515,508,510
496,496,496,496,496,496,496,496,496,510,491,512,511,510,524,515,508,510
492,492,492,492,492,492,492,492,492,510,492,512,511,508,527,515,508,510
489,489,489,489,489,489,489,489,489,508,492,511,511,508,529,515,508,511
487,487,487,487,487,487,487,487,487,508,492,511,511,508,530,513,508,511
487,487,487,487,487,487,487,487,487,508,494,511,510,508,531,513,508,512
483,483,483,483,483,483,483,483,483,507,495,511,510,508,531,513,508,512
483,483,483,483,483,483,483,483,483,505,496,511,510,508,529,513,508,512
483,483,483,483,483,483,483,483,483,505,497,510,508,508,527,512,507,512
483,483,483,483,483,483,483,483,483,505,499,510,508,510,526,512,507,513
481,481,481,481,481,481,481,481,481,506,502,510,508,510,524,512,507,513
483,483,483,483,483,483,483,483,483,505,504,510,507,510,523,512,507,513
483,483,483,483,483,483,483,483,483,505,507,510,507,510,520,513,507,513
483,483,483,483,483,483,483,483,483,505,508,510,505,510,519,513,508,513
483,483,483,483,483,483,483,483,483,505,510,510,507,508,518,513,507,513
483,483,483,483,483,483,483,483,483,504,511,510,506,508,516,513,507,512
485,485,485,485,485,485,485,485,485,504,512,510,505,508,515,514,507,512
486,486,486,486,486,486,486,486,486,504,513,510,507,508,513,513,507,511
487,487,487,487,487,487,487,487,487,504,513,510,508,508,512,513,507,512
487,487,487,487,487,487,487,487,487,505,513,509,508,508,511,513,505,511
487,487,487,487,487,487,487,487,487,507,512,509,508,508,511,513,507,511
487,487,487,487,487,487,487,487,487,508,511,510,508,508,511,513,507,511
487,487,487,487,487,487,487,487,487,508,510,510,508,508,511,512,507,511
487,487,487,487,487,487,487,487,487,508,508,510,508,508,511,513,507,511
487,487,487,487,487,487,487,487,487,508,505,510,508,508,510,513,507,512
487,487,487,487,487,487,487,487,487,508,504,510,508,508,508,513,507,511
488,488,488,488,488,488,488,488,488,508,504,509,508,507,508,513,507,512
487,487,487,487,487,487,487,487,487,507,503,508,508,505,508,514,508,512
488,488,488,488,488,488,488,488,488,508,502,508,508,507,508,515,508,512
489,489,489,489,489,489,489,489,489,508,500,508,508,505,509,515,509,512
491,491,491,491,491,491,491,491,491,508,499,510,508,505,510,515,510,512
492,492,492,492,492,492,492,492,492,508,499,510,508,507,510,515,511,512
497,497,497,497,497,497,497,497,497,508,497,511,508,505,510,515,511,512
504,504,504,504,504,504,504,504,504,507,496,511,508,505,510,515,512,512
512,512,512,512,512,512,512,512,512,507,497,510,508,505,510,515,513,512
524,524,524,524,524,524,524,524,524,507,496,510,508,504,510,513,513,512
536,536,536,536,536,536,536,536,536,507,496,511,508,504,508,513,513,511
546,546,546,546,546,546,546,546,546,507,496,511,508,504,508,513,514,512
556,556,556,556,556,556,556,556,556,505,497,510,509,504,508,513,513,511
566,566,566,566,566,566,566,566,566,505,497,510,510,504,508,512,513,511
574,574,574,574,574,574,574,574,574,505,499,510,510,504,506,512,513,511
578,578,578,578,578,578,578,578,578,505,499,510,511,504,505,512,515,511
580,580,580,580,580,580,580,580,580,505,502,508,511,504,504,512,513,510
582,582,582,582,582,582,582,582,582,505,504,508,512,504,504,512,514,511
579,579,579,579,579,579,579,579,579,505,507,510,512,504,504,512,513,511
575,575,575,575,575,575,575,575,575,505,511,509,513,504,504,512,513,511
569,569,569,569,569,569,569,569,569,507,515,509,513,504,504,512,512,510
563,563,563,563,563,563,563,563,563,508,519,510,515,505,504,512,512,510
556,556,556,556,556,556,556,556,556,508,524,510,515,507,504,512,511,510
548,548,548,548,548,548,548,548,548,509,531,508,515,508,504,512,510,508
540,540,540,540,540,540,540,540,540,510,537,508,516,510,502,511,509,508
532,532,532,532,532,532,532,532,532,511,543,508,515,512,502,511,508,508
526,526,526,526,526,526,526,526,526,512,548,508,515,513,502,511,508,508
519,519,519,519,519,519,519,519,519,513,555,508,515,515,502,512,508,508
512,512,512,512,512,512,512,512,512,515,558,508,515,515,502,512,507,508
505,505,505,505,505,505,505,505,505,515,559,508,515,516,500,513,505,508
500,500,500,500,500,500,500,500,500,515,559,508,515,518,499,515,504,508
496,496,496,496,496,496,496,496,496,515,557,508,515,518,500,515,505,508
492,492,492,492,492,492,492,492,492,516,556,509,515,519,500,516,505,508
489,489,489,489,489,489,489,489,489,516,551,510,513,519,500,516,505,509
489,489,489,489,489,489,489,489,489,517,547,510,513,519,500,518,507,509
488,488,488,488,488,488,488,488,488,516,543,510,512,519,502,519,507,510
491,491,491,491,491,491,491,491,491,517,536,511,511,519,503,519,508,510
494,494,494,494,494,494,494,494,494,518,531,511,510,519,503,519,508,510
496,496,496,496,496,496,496,496,496,516,524,511,510,518,504,519,510,511
499,499,499,499,499,499,499,499,499,515,519,511,510,518,503,519,510,511
504,504,504,504,504,504,504,504,504,515,512,512,508,516,502,519,510,511
508,508,508,508,508,508,508,508,508,515,508,512,508,515,502,519,510,512
512,512,512,512,512,512,512,512,512,515,504,511,508,515,502,519,510,512
515,515,515,515,515,515,515,515,515,515,500,512,508,515,502,519,510,513
518,518,518,518,518,518,518,518,518,515,499,512,508,513,504,519,511,514
519,519,519,519,519,519,519,519,519,515,497,512,508,513,503,519,511,515
519,519,519,519,519,519,519,519,519,515,496,512,508,512,504,519,511,515
519,519,519,519,519,519,519,519,519,515,496,512,510,512,503,519,511,515
518,518,518,518,518,518,518,518,518,515,496,512,509,511,503,519,511,515
515,515,515,515,515,515,515,515,515,515,495,512,511,511,503,518,510,515
512,512,512,512,512,512,512,512,512,514,496,513,511,508,503,518,509,515
510,510,510,510,510,510,510,510,510,513,496,512,512,508,503,518,508,513
508,508,508,508,508,508,508,508,508,512,497,512,512,508,504,516,508,513
504,504,504,504,504,504,504,504,504,511,499,511,512,508,504,516,508,512
501,501,501,501,501,501,501,501,501,511,500,511,512,508,504,515,508,511
499,499,499,499,499,499,499,499,499,510,503,511,511,508,504,515,508,511
496,496,496,496,496,496,496,496,496,508,504,511,511,508,504,515,508,511
492,492,492,492,492,492,492,492,492,508,504,510,510,508,505,515,508,511
489,489,489,489,489,489,489,489,489,507,505,510,511,508,508,514,508,511
487,487,487,487,487,487,487,487,487,508,508,510,510,508,511,515,508,510
487,487,487,487,487,487,487,487,487,507,508,510,510,508,513,515,507,510
486,486,486,486,486,486,486,486,486,508,511,510,510,508,515,515,507,511
484,484,484,484,484,484,484,484,484,508,511,510,510,508,519,515,507,511
484,484,484,484,484,484,484,484,484,508,512,510,510,508,521,515,507,511
483,483,483,483,483,483,483,483,483,507,512,511,509,508,523,515,507,512
483,483,483,483,483,483,483,483,483,507,512,510,510,508,524,514,508,512
482,482,482,482,482,482,482,482,482,505,512,510,510,508,525,513,507,512
483,483,483,483,483,483,483,483,483,505,512,509,508,508,525,512,505,512
483,483,483,483,483,483,483,483,483,505,511,508,508,508,524,512,507,512
483,483,483,483,483,483,483,483,483,505,510,508,508,508,524,512,505,512
483,483,483,483,483,483,483,483,483,505,508,508,508,508,524,512,505,512
486,486,486,486,486,486,486,486,486,505,508,508,508,508,521,512,506,511
487,487,487,487,487,487,487,487,487,505,508,508,508,508,521,512,507,511
487,487,487,487,487,487,487,487,487,507,507,510,508,510,519,512,507,511
487,487,487,487,487,487,487,487,487,505,505,508,508,509,519,512,508,511
489,489,489,489,489,489,489,489,489,505,504,510,508,510,516,513,508,512
492,492,492,492,492,492,492,492,492,505,503,510,508,510,515,513,507,512
493,493,493,493,493,493,493,493,493,507,500,510,508,508,515,513,507,512
493,493,493,493,493,493,493,493,493,507,499,510,508,508,513,513,508,512
494,494,494,494,494,494,494,494,494,507,498,510,508,507,512,513,507,512
494,494,494,494,494,494,494,494,494,505,497,510,508,505,511,513,508,512
495,495,495,495,495,495,495,495,495,505,496,510,508,504,510,513,508,512
494,494,494,494,494,494,494,494,494,504,496,510,507,504,510,512,508,512
492,492,492,492,492,492,492,492,492,504,496,510,508,504,508,513,510,511
492,492,492,492,492,492,492,492,492,504,496,510,508,504,508,513,510,511
492,492,492,492,492,492,492,492,492,504,496,508,508,504,508,513,511,511
492,492,492,492,492,492,492,492,492,504,496,508,508,504,508,513,511,510
492,492,492,492,492,492,492,492,492,505,497,510,509,503,508,513,512,510
494,494,494,494,494,494,494,494,494,504,497,510,508,503,508,514,512,510
497,497,497,497,497,497,497,497,497,504,499,510,508,502,508,515,513,510
503,503,503,503,503,503,503,503,503,504,500,510,508,503,508,514,515,510
511,511,511,511,511,511,511,511,511,504,504,510,508,503,508,513,513,509
519,519,519,519,519,519,519,519,519,504,505,510,509,504,508,513,513,510
530,530,530,530,530,530,530,530,530,504,511,510,508,504,509,513,513,510
540,540,540,540,540,540,540,540,540,505,515,511,508,504,511,512,512,510
551,551,551,551,551,551,551,551,551,505,521,511,508,504,511,512,512,510
560,560,560,560,560,560,560,560,560,507,528,510,508,504,511,512,511,509
568,568,568,568,568,568,568,568,568,508,536,511,508,505,511,512,511,509
573,573,573,573,573,573,573,573,573,510,542,511,508,505,511,512,511,508
577,577,577,577,577,577,577,577,577,510,550,510,508,508,511,511,510,508
577,577,577,577,577,577,577,577,577,510,555,511,508,508,510,511,510,508
577,577,577,577,577,577,577,577,577,511,559,511,507,508,510,511,508,508
574,574,574,574,574,574,574,574,574,511,561,511,507,510,510,512,508,508
568,568,568,568,568,568,568,568,568,512,563,512,507,511,508,512,508,508
563,563,563,563,563,563,563,563,563,512,562,512,508,513,508,513,508,508
555,555,555,555,555,555,555,555,555,513,560,512,508,515,507,513,508,510
545,545,545,545,545,545,545,545,545,513,556,512,508,516,505,515,508,510
537,537,537,537,537,537,537,537,537,513,551,512,510,518,504,515,508,511
527,527,527,527,527,527,527,527,527,515,547,512,511,519,502,515,508,511
519,519,519,519,519,519,519,519,519,515,540,512,511,519,500,516,508,511
512,512,512,512,512,512,512,512,512,515,534,512,511,520,500,516,508,511
504,504,504,504,504,504,504,504,504,515,527,512,512,519,499,518,507,511
497,497,497,497,497,497,497,497,497,515,521,512,512,519,499,518,507,511
492,492,492,492,492,492,492,492,492,515,517,512,512,519,499,518,508,512
487,487,487,487,487,487,487,487,487,515,512,511,512,519,500,519,508,512
483,483,483,483,483,483,483,483,483,516,508,511,513,519,501,518,507,512
480,480,480,480,480,480,480,480,480,516,504,511,513,518,502,519,508,512
480,480,480,480,480,480,480,480,480,516,502,511,513,516,502,518,508,512
483,483,483,483,483,483,483,483,483,516,499,510,513,515,502,518,508,512
484,484,484,484,484,484,484,484,484,516,496,510,515,515,502,518,508,512
487,487,487,487,487,487,487,487,487,515,494,511,515,513,502,518,509,511
492,492,492,492,492,492,492,492,492,515,493,510,515,512,502,516,508,511
496,496,496,496,496,496,496,496,496,515,493,510,514,512,502,516,510,511
500,500,500,500,500,500,500,500,500,515,493,510,513,512,502,516,509,510
504,504,504,504,504,504,504,504,504,515,495,510,513,511,502,516,510,510
508,508,508,508,508,508,508,508,508,515,496,510,513,511,502,515,510,510
512,512,512,512,512,512,512,512,512,514,496,510,512,511,503,515,510,510
515,515,515,515,515,515,515,515,515,513,499,510,511,510,504,515,510,511
518,518,518,518,518,518,518,518,518,513,500,510,511,510,504,515,508,511
519,519,519,519,519,519,519,519,519,512,504,510,511,510,504,515,508,511
519,519,519,519,519,519,519,519,519,511,504,510,510,510,504,515,509,512
519,519,519,519,519,519,519,519,519,511,507,511,510,508,505,515,508,511
519,519,519,519,519,519,519,519,519,510,508,510,510,508,505,515,508,511
515,515,515,515,515,515,515,515,515,510,511,511,510,508,507,515,508,511
513,513,513,513,513,513,513,513,513,508,511,511,509,508,508,515,509,510
510,510,510,510,510,510,510,510,510,508,512,511,509,508,511,515,508,511
507,507,507,507,507,507,507,507,507,508,513,511,509,507,513,515,508,510
504,504,504,504,504,504,504,504,504,508,513,510,509,505,516,515,508,510
500,500,500,500,500,500,500,500,500,508,512,510,510,505,519,515,508,510
496,496,496,496,496,496,496,496,496,510,511,510,510,504,523,515,508,510
494,494,494,494,494,494,494,494,494,510,511,510,511,504,526,514,508,510
492,492,492,492,492,492,492,492,492,510,511,510,511,504,527,515,508,510
488,488,488,488,488,488,488,488,488,510,510,508,512,504,530,513,508,511
487,487,487,487,487,487,487,487,487,510,508,510,512,504,531,513,508,511
486,486,486,486,486,486,486,486,486,508,508,508,512,504,531,513,508,511
483,483,483,483,483,483,483,483,483,508,505,508,512,504,531,513,508,511
483,483,483,483,483,483,483,483,483,508,504,508,511,504,529,513,508,511
483,483,483,483,483,483,483,483,483,507,504,510,511,504,529,513,508,511
482,482,482,482,482,482,482,482,482,507,503,508,510,504,527,513,508,511
481,481,481,481,481,481,481,481,481,505,502,509,510,504,526,512,509,511
481,481,481,481,481,481,481,481,481,507,499,508,510,504,524,512,508,511
481,481,481,481,481,481,481,481,481,505,499,508,510,504,521,512,508,511
481,481,481,481,481,481,481,481,481,505,499,508,510,504,519,511,508,510
483,483,483,483,483,483,483,483,483,504,497,508,510,504,518,512,507,510
483,483,483,483,483,483,483,483,483,504,496,508,509,504,515,512,507,509
486,486,486,486,486,486,486,486,486,504,497,508,508,504,513,512,507,508
487,487,487,487,487,487,487,487,487,504,496,508,508,504,512,512,507,508
487,487,487,487,487,487,487,487,487,504,496,508,508,504,510,512,508,508
487,487,487,487,487,487,487,487,487,504,496,508,508,504,508,512,508,507
489,489,489,489,489,489,489,489,489,504,496,507,508,503,508,512,508,508
492,492,492,492,492,492,492,492,492,504,496,508,508,502,508,512,508,508
492,492,492,492,492,492,492,492,492,504,496,508,508,502,507,512,508,508
494,494,494,494,494,494,494,494,494,504,497,508,508,500,507,512,508,509
494,494,494,494,494,494,494,494,494,504,498,508,508,500,507,512,508,510
494,494,494,494,494,494,494,494,494,504,499,510,509,499,508,512,508,511
494,494,494,494,494,494,494,494,494,504,500,510,510,499,508,512,508,511
494,494,494,494,494,494,494,494,494,504,502,511,510,499,508,512,508,511
494,494,494,494,494,494,494,494,494,504,504,511,510,499,510,512,508,512
494,494,494,494,494,494,494,494,494,504,505,511,511,499,509,511,508,513
496,496,496,496,496,496,496,496,496,505,510,512,511,500,510,511,509,514
501,501,501,501,501,501,501,501,501,505,513,512,511,500,509,511,510,515
508,508,508,508,508,508,508,508,508,507,519,512,511,502,510,512,510,515
518,518,518,518,518,518,518,518,518,507,527,512,510,502,510,512,511,515
527,527,527,527,527,527,527,527,527,507,534,513,510,502,508,512,512,516
540,540,540,540,540,540,540,540,540,507,540,513,510,503,508,512,512,516
550,550,550,550,550,550,550,550,550,507,547,513,509,502,508,513,513,517
560,560,560,560,560,560,560,560,560,505,551,513,510,503,508,512,513,516
568,568,568,568,568,568,568,568,568,505,556,513,510,502,508,513,513,515
575,575,575,575,575,575,575,575,575,505,559,513,510,503,508,512,513,515
579,579,579,579,579,579,579,579,579,505,560,513,508,504,508,512,512,515
581,581,581,581,581,581,581,581,581,504,560,513,508,504,508,512,512,513
579,579,579,579,579,579,579,579,579,504,558,512,508,505,508,513,512,513
575,575,575,575,575,575,575,575,575,504,555,512,507,508,508,513,512,512
571,571,571,571,571,571,571,571,571,504,551,512,507,508,508,513,511,512
566,566,566,566,566,566,566,566,566,504,545,511,505,510,507,513,512,512
558,558,558,558,558,558,558,558,558,504,539,511,505,512,505,515,511,512
551,551,551,551,551,551,551,551,551,504,532,511,505,512,505,515,510,511
543,543,543,543,543,543,543,543,543,504,527,511,507,513,504,515,511,511
534,534,534,534,534,534,534,534,534,504,520,511,507,515,504,516,510,510
525,525,525,525,525,525,525,525,525,504,515,511,508,515,504,516,508,510
515,515,515,515,515,515,515,515,515,503,508,510,508,515,503,516,508,509
508,508,508,508,508,508,508,508,508,503,504,510,508,515,503,518,508,509
502,502,502,502,502,502,502,502,502,503,499,510,511,515,502,518,508,510
495,495,495,495,495,495,495,495,495,502,496,508,512,513,500,518,508,508
491,491,491,491,491,491,491,491,491,502,494,508,513,512,499,516,507,508
487,487,487,487,487,487,487,487,487,502,492,508,515,512,499,517,507,508
487,487,487,487,487,487,487,487,487,502,491,508,515,511,499,518,508,508
487,487,487,487,487,487,487,487,487,503,492,508,515,511,499,516,508,509
489,489,489,489,489,489,489,489,489,503,492,508,515,508,499,516,508,508
493,493,493,493,493,493,493,493,493,503,494,508,515,508,497,516,508,508
497,497,497,497,497,497,497,497,497,504,496,508,515,507,497,517,508,509
503,503,503,503,503,503,503,503,503,503,497,508,515,505,497,516,508,508
508,508,508,508,508,508,508,508,508,504,499,508,515,505,497,515,508,508
512,512,512,512,512,512,512,512,512,504,502,508,515,504,497,516,508,508
515,515,515,515,515,515,515,515,515,504,504,508,515,504,498,515,508,509
519,519,519,519,519,519,519,519,519,504,504,508,515,504,499,516,509,510
521,521,521,521,521,521,521,521,521,504,505,509,515,504,499,516,509,511
524,524,524,524,524,524,524,524,524,504,507,509,515,504,500,518,510,511
525,525,525,525,525,525,525,525,525,504,508,509,515,504,500,516,510,511
524,524,524,524,524,524,524,524,524,504,509,509,515,504,500,516,508,511
524,524,524,524,524,524,524,524,524,504,511,510,514,504,502,515,510,511
521,521,521,521,521,521,521,521,521,504,511,510,515,505,504,515,510,511
519,519,519,519,519,519,519,519,519,504,511,510,513,505,504,515,510,511
515,515,515,515,515,515,515,515,515,503,512,508,512,507,505,515,510,511
513,513,513,513,513,513,513,513,513,503,512,509,511,508,508,513,510,511
511,511,511,511,511,511,511,511,511,502,512,509,511,507,511,513,510,511
507,507,507,507,507,507,507,507,507,502,512,510,510,508,513,514,511,511
504,504,504,504,504,504,504,504,504,502,510,510,510,507,516,513,510,510
499,499,499,499,499,499,499,499,499,502,508,511,508,507,519,513,511,510
497,497,497,497,497,497,497,497,497,500,507,510,508,507,523,513,510,510
496,496,496,496,496,496,496,496,496,499,504,510,508,507,526,513,510,508
493,493,493,493,493,493,493,493,493,499,504,510,508,507,527,513,509,508
492,492,492,492,492,492,492,492,492,499,502,510,508,505,531,513,509,508
489,489,489,489,489,489,489,489,489,499,499,510,508,505,531,513,509,508
487,487,487,487,487,487,487,487,487,499,499,510,510,505,534,514,508,508
487,487,487,487,487,487,487,487,487,499,497,510,510,504,534,513,508,508
485,485,485,485,485,485,485,485,485,499,496,509,510,504,534,513,508,508
483,483,483,483,483,483,483,483,483,499,495,509,510,504,532,513,508,508
483,483,483,483,483,483,483,483,483,499,495,508,511,504,531,513,508,508
481,481,481,481,481,481,481,481,481,500,494,509,511,504,529,513,508,510
481,481,481,481,481,481,481,481,481,500,495,508,511,503,527,513,508,510
481,481,481,481,481,481,481,481,481,500,496,508,511,503,527,513,508,510
481,481,481,481,481,481,481,481,481,502,496,510,512,503,524,513,508,510
483,483,483,483,483,483,483,483,483,503,496,510,512,503,523,513,508,510
483,483,483,483,483,483,483,483,483,504,496,510,512,503,520,513,508,510
484,484,484,484,484,484,484,484,484,504,495,510,513,504,519,512,508,509
484,484,484,484,484,484,484,484,484,504,494,510,513,504,518,512,508,509
484,484,484,484,484,484,484,484,484,504,494,510,513,504,516,511,508,508
486,486,486,486,486,486,486,486,486,504,495,510,513,504,515,511,507,508
486,486,486,486,486,486,486,486,486,504,496,510,513,504,515,511,507,510
487,487,487,487,487,487,487,487,487,505,496,510,512,504,515,511,505,510
487,487,487,487,487,487,487,487,487,505,496,511,512,504,515,511,507,511
487,487,487,487,487,487,487,487,487,507,496,511,512,504,512,511,507,511
489,489,489,489,489,489,489,489,489,508,497,511,511,505,512,511,507,512
489,489,489,489,489,489,489,489,489,508,497,512,510,504,510,511,508,512
491,491,491,491,491,491,491,491,491,511,498,512,510,504,508,511,507,512
492,492,492,492,492,492,492,492,492,512,499,512,510,504,508,511,508,512
495,495,495,495,495,495,495,495,495,513,502,512,508,504,507,511,508,511
499,499,499,499,499,499,499,499,499,513,504,512,508,504,506,512,508,511
504,504,504,504,504,504,504,504,504,513,507,512,508,504,505,512,508,512
513,513,513,513,513,513,513,513,513,515,510,511,508,504,507,512,508,512
523,523,523,523,523,523,523,523,523,515,515,512,508,505,507,512,508,512
534,534,534,534,534,534,534,534,534,515,520,512,507,508,507,512,508,511
544,544,544,544,544,544,544,544,544,515,527,512,507,509,507,512,510,512
556,556,556,556,556,556,556,556,556,515,535,511,507,511,508,512,510,511
563,563,563,563,563,563,563,563,563,515,541,512,507,513,508,512,510,510
572,572,572,572,572,572,572,572,572,515,548,512,507,515,509,512,511,511
575,575,575,575,575,575,575,575,575,515,553,512,505,515,510,512,511,511
579,579,579,579,579,579,579,579,579,515,560,512,507,516,510,512,512,510
582,582,582,582,582,582,582,582,582,513,561,511,507,516,510,512,512,510
579,579,579,579,579,579,579,579,579,513,563,512,507,518,510,512,513,510
576,576,576,576,576,576,576,576,576,512,562,511,507,518,510,512,513,510
572,572,572,572,572,572,572,572,572,511,560,511,508,518,508,512,513,510
564,564,564,564,564,564,564,564,564,510,556,511,508,518,508,512,513,510
556,556,556,556,556,556,556,556,556,510,551,511,508,517,508,512,513,510
547,547,547,547,547,547,547,547,547,509,546,510,508,516,508,512,513,510
540,540,540,540,540,540,540,540,540,508,540,511,508,517,508,512,513,510
531,531,531,531,531,531,531,531,531,508,534,511,508,515,507,512,513,510
523,523,523,523,523,523,523,523,523,507,527,510,508,515,505,513,512,508
515,515,515,515,515,515,515,515,515,507,519,510,507,514,504,513,512,508
509,509,509,509,509,509,509,509,509,507,513,508,507,513,504,515,512,508
503,503,503,503,503,503,503,503,503,508,508,509,505,512,502,515,511,508
496,496,496,496,496,496,496,496,496,508,504,508,505,511,500,515,511,508
492,492,492,492,492,492,492,492,492,508,499,508,505,510,500,516,510,508
487,487,487,487,487,487,487,487,487,508,496,508,507,508,500,518,510,509
487,487,487,487,487,487,487,487,487,508,493,508,507,508,499,518,508,508
486,486,486,486,486,486,486,486,486,508,491,508,508,508,499,518,508,510
487,487,487,487,487,487,487,487,487,507,489,508,508,508,499,518,508,509
491,491,491,491,491,491,491,491,491,505,489,508,508,508,499,518,508,510
494,494,494,494,494,494,494,494,494,505,489,508,509,508,497,516,508,510
499,499,499,499,499,499,499,499,499,505,491,508,510,508,499,517,508,509
502,502,502,502,502,502,502,502,502,505,492,508,511,508,499,516,508,508
505,505,505,505,505,505,505,505,505,505,495,508,512,508,500,515,508,508
508,508,508,508,508,508,508,508,508,507,496,508,512,508,502,515,508,508
511,511,511,511,511,511,511,511,511,508,499,508,513,508,504,515,508,508
513,513,513,513,513,513,513,513,513,508,503,508,513,508,504,515,508,508
515,515,515,515,515,515,515,515,515,508,504,507,513,508,504,515,508,508
518,518,518,518,518,518,518,518,518,508,507,508,513,508,504,515,508,508
519,519,519,519,519,519,519,519,519,508,509,508,513,508,504,515,508,508
518,518,518,518,518,518,518,518,518,508,511,508,515,508,504,515,508,508
516,516,516,516,516,516,516,516,516,508,512,508,515,508,504,515,509,508
515,515,515,515,515,515,515,515,515,508,512,508,516,508,504,515,508,508
513,513,513,513,513,513,513,513,513,508,513,508,518,507,504,515,510,508
511,511,511,511,511,511,511,511,511,508,515,508,518,507,504,515,510,508
508,508,508,508,508,508,508,508,508,508,514,508,519,508,504,515,510,508
507,507,507,507,507,507,507,507,507,508,513,509,519,508,504,515,510,508
504,504,504,504,504,504,504,504,504,508,513,510,518,508,504,515,510,508
502,502,502,502,502,502,502,502,502,507,513,509,518,508,504,514,510,508
499,499,499,499,499,499,499,499,499,507,512,510,518,508,504,515,510,508
497,497,497,497,497,497,497,497,497,505,511,510,518,508,504,514,510,508
496,496,496,496,496,496,496,496,496,504,511,511,516,508,507,515,510,508
495,495,495,495,495,495,495,495,495,504,508,511,515,508,508,515,510,510
492,492,492,492,492,492,492,492,492,504,508,511,515,508,512,515,511,510
492,492,492,492,492,492,492,492,492,504,505,511,515,507,515,515,511,510
489,489,489,489,489,489,489,489,489,504,504,512,515,508,519,515,511,510
487,487,487,487,487,487,487,487,487,505,503,512,514,507,521,515,511,510
487,487,487,487,487,487,487,487,487,505,502,512,512,507,524,513,510,511
487,487,487,487,487,487,487,487,487,505,499,512,511,507,527,513,511,511
485,485,485,485,485,485,485,485,485,505,499,511,510,507,531,512,510,511
486,486,486,486,486,486,486,486,486,505,498,512,508,505,532,513,510,511
484,484,484,484,484,484,484,484,484,505,496,512,508,504,535,512,508,512
486,486,486,486,486,486,486,486,486,505,496,511,508,504,536,512,510,512
486,486,486,486,486,486,486,486,486,507,496,511,508,504,536,512,509,512
487,487,487,487,487,487,487,487,487,507,495,511,508,504,536,512,509,512
487,487,487,487,487,487,487,487,487,508,494,511,509,504,535,512,508,512
488,488,488,488,488,488,488,488,488,508,494,511,510,504,531,511,508,512
489,489,489,489,489,489,489,489,489,508,494,511,511,504,531,511,508,511
487,487,487,487,487,487,487,487,487,508,495,511,512,505,528,511,508,511
487,487,487,487,487,487,487,487,487,510,495,511,511,505,527,511,508,511
487,487,487,487,487,487,487,487,487,510,495,511,512,508,525,511,508,510
487,487,487,487,487,487,487,487,487,511,495,511,511,510,524,511,508,510
486,486,486,486,486,486,486,486,486,512,496,511,511,511,521,511,508,510
483,483,483,483,483,483,483,483,483,513,496,510,511,513,519,511,508,508
483,483,483,483,483,483,483,483,483,515,497,510,512,515,517,510,508,508
484,484,484,484,484,484,484,484,484,515,499,510,512,516,516,511,508,508
484,484,484,484,484,484,484,484,484,515,500,510,513,518,515,510,509,508
487,487,487,487,487,487,487,487,487,516,504,510,513,518,513,511,508,508
492,492,492,492,492,492,492,492,492,518,508,510,513,519,512,511,508,508
497,497,497,497,497,497,497,497,497,518,511,509,513,519,511,511,508,508
506,506,506,506,506,506,506,506,506,519,518,508,513,519,510,511,509,510
516,516,516,516,516,516,516,516,516,519,524,510,512,519,510,511,509,510
528,528,528,528,528,528,528,528,528,519,531,508,512,519,508,511,509,510
540,540,540,540,540,540,540,540,540,519,540,508,511,518,508,511,510,510
551,551,551,551,551,551,551,551,551,518,545,508,511,516,508,511,509,510
560,560,560,560,560,560,560,560,560,518,551,510,511,516,507,511,510,511
568,568,568,568,568,568,568,568,568,516,558,509,510,515,505,511,510,510
574,574,574,574,574,574,574,574,574,516,561,510,510,513,505,512,511,510
577,577,577,577,577,577,577,577,577,515,563,510,510,512,505,511,511,510
577,577,577,577,577,577,577,577,577,514,563,511,510,511,507,512,511,510
575,575,575,575,575,575,575,575,575,515,561,511,510,511,507,512,511,510
574,574,574,574,574,574,574,574,574,513,559,511,511,511,507,511,512,510
569,569,569,569,569,569,569,569,569,513,553,510,511,511,508,511,512,510
563,563,563,563,563,563,563,563,563,513,548,510,510,511,508,511,512,510
556,556,556,556,556,556,556,556,556,513,543,511,510,511,508,512,513,510
547,547,547,547,547,547,547,547,547,513,536,512,510,511,509,512,513,511
539,539,539,539,539,539,539,539,539,513,529,512,510,511,508,513,513,510
529,529,529,529,529,529,529,529,529,512,524,511,510,511,508,513,513,511
521,521,521,521,521,521,521,521,521,512,518,511,510,510,507,513,513,510
513,513,513,513,513,513,513,513,513,512,512,510,510,510,507,513,513,510
505,505,505,505,505,505,505,505,505,512,507,510,508,510,507,513,513,510
499,499,499,499,499,499,499,499,499,512,502,509,508,510,507,513,513,510
492,492,492,492,492,492,492,492,492,511,497,510,508,510,505,513,512,508
487,487,487,487,487,487,487,487,487,512,496,509,508,510,507,513,512,508
483,483,483,483,483,483,483,483,483,512,492,508,508,509,505,513,512,508
481,481,481,481,481,481,481,481,481,512,492,508,508,510,504,513,511,508
481,481,481,481,481,481,481,481,481,512,492,508,507,510,504,514,511,508
481,481,481,481,481,481,481,481,481,512,491,508,507,509,504,515,511,508
484,484,484,484,484,484,484,484,484,511,492,508,507,508,502,515,511,508
487,487,487,487,487,487,487,487,487,511,493,509,507,508,502,515,510,508
492,492,492,492,492,492,492,492,492,511,495,508,507,508,502,515,510,508
496,496,496,496,496,496,496,496,496,511,496,508,508,507,502,516,510,508
500,500,500,500,500,500,500,500,500,509,498,508,508,508,502,518,510,508
505,505,505,505,505,505,505,505,505,508,499,508,507,508,503,517,510,508
510,510,510,510,510,510,510,510,510,507,502,508,507,508,503,518,508,508
513,513,513,513,513,513,513,513,513,505,504,508,507,510,504,516,508,508
518,518,518,518,518,518,518,518,518,507,505,508,508,511,504,516,508,508
519,519,519,519,519,519,519,519,519,507,508,507,508,512,504,516,508,508
519,519,519,519,519,519,519,519,519,507,510,507,508,513,504,516,508,508
521,521,521,521,521,521,521,521,521,507,511,508,508,514,504,515,508,508
521,521,521,521,521,521,521,521,521,508,512,508,508,515,504,515,508,508
519,519,519,519,519,519,519,519,519,507,512,508,508,513,504,515,508,508
519,519,519,519,519,519,519,519,519,508,512,508,508,513,504,515,508,510
515,515,515,515,515,515,515,515,515,508,512,510,507,512,504,515,509,510
511,511,511,511,511,511,511,511,511,509,511,511,507,512,504,515,508,510
508,508,508,508,508,508,508,508,508,510,509,510,507,511,504,515,510,511
504,504,504,504,504,504,504,504,504,511,508,511,508,511,504,515,510,511
502,502,502,502,502,502,502,502,502,510,507,511,508,510,504,515,511,512
499,499,499,499,499,499,499,499,499,510,504,512,508,508,503,515,511,512
496,496,496,496,496,496,496,496,496,509,504,512,508,508,502,515,511,512
493,493,493,493,493,493,493,493,493,508,501,512,509,507,502,515,511,512
490,490,490,490,490,490,490,490,490,508,499,512,510,507,500,515,511,512
487,487,487,487,487,487,487,487,487,508,499,512,511,507,502,515,511,513
484,484,484,484,484,484,484,484,484,508,497,512,511,507,501,515,511,512
483,483,483,483,483,483,483,483,483,508,497,512,512,505,500,513,510,513
481,481,481,481,481,481,481,481,481,508,497,512,513,505,502,513,511,512
480,480,480,480,480,480,480,480,480,508,496,512,514,505,502,515,510,512
480,480,480,480,480,480,480,480,480,508,496,513,515,504,502,515,511,512
480,480,480,480,480,480,480,480,480,508,496,513,515,504,502,515,511,512
480,480,480,480,480,480,480,480,480,507,496,513,515,504,504,515,511,512
480,480,480,480,480,480,480,480,480,507,496,512,515,505,504,514,511,511
481,481,481,481,481,481,481,481,481,508,496,512,516,505,508,515,510,511
483,483,483,483,483,483,483,483,483,510,496,511,516,505,511,515,510,510
483,483,483,483,483,483,483,483,483,510,496,512,517,505,515,513,510,508
483,483,483,483,483,483,483,483,483,510,496,511,518,507,519,513,510,508
484,484,484,484,484,484,484,484,484,511,497,511,518,508,524,513,510,508
486,486,486,486,486,486,486,486,486,512,496,511,516,510,528,513,509,508
486,486,486,486,486,486,486,486,486,513,496,510,515,512,532,512,509,508
487,487,487,487,487,487,487,487,487,515,496,510,515,513,536,512,508,508
487,487,487,487,487,487,487,487,487,515,496,510,515,515,536,512,510,508
488,488,488,488,488,488,488,488,488,516,496,511,513,518,539,512,509,509
489,489,489,489,489,489,489,489,489,518,496,510,513,519,539,512,508,510
489,489,489,489,489,489,489,489,489,518,496,510,512,518,537,512,509,510
491,491,491,491,491,491,491,491,491,518,497,510,512,519,536,512,508,510
491,491,491,491,491,491,491,491,491,519,497,509,512,518,536,512,509,510
492,492,492,492,492,492,492,492,492,519,499,510,511,519,531,512,510,510
492,492,492,492,492,492,492,492,492,519,499,509,511,518,529,512,509,511
491,491,491,491,491,491,491,491,491,519,499,509,511,518,527,512,509,510
492,492,492,492,492,492,492,492,492,519,503,508,511,516,524,512,508,510
495,495,495,495,495,495,495,495,495,519,505,508,511,515,521,511,508,510
500,500,500,500,500,500,500,500,500,519,511,508,511,513,519,511,508,510
508,508,508,508,508,508,508,508,508,519,518,508,511,512,518,511,508,510
516,516,516,516,516,516,516,516,516,519,524,508,511,511,515,511,508,510
527,527,527,527,527,527,527,527,527,519,532,508,511,510,515,511,508,510
539,539,539,539,539,539,539,539,539,519,540,508,512,508,513,512,508,509
548,548,548,548,548,548,548,548,548,519,548,508,512,508,512,511,508,510
559,559,559,559,559,559,559,559,559,519,556,508,512,505,511,511,508,509
566,566,566,566,566,566,566,566,566,518,560,508,512,504,510,512,508,508
572,572,572,572,572,572,572,572,572,518,564,508,512,504,510,512,510,509
575,575,575,575,575,575,575,575,575,518,568,508,512,504,508,511,510,508
575,575,575,575,575,575,575,575,575,516,568,508,512,504,509,511,511,508
575,575,575,575,575,575,575,575,575,516,567,508,512,503,510,511,511,508
573,573,573,573,573,573,573,573,573,515,563,508,512,502,510,511,512,508
568,568,568,568,568,568,568,568,568,515,559,508,512,502,510,511,512,508
561,561,561,561,561,561,561,561,561,515,553,508,511,502,510,511,512,508
556,556,556,556,556,556,556,556,556,513,547,510,511,502,510,511,513,508
547,547,547,547,547,547,547,547,547,513,540,508,511,501,509,510,513,508
540,540,540,540,540,540,540,540,540,512,535,509,510,502,510,511,513,508
531,531,531,531,531,531,531,531,531,512,527,510,510,501,510,511,513,510
524,524,524,524,524,524,524,524,524,512,523,510,508,499,511,511,514,511
515,515,515,515,515,515,515,515,515,513,516,510,508,499,512,510,515,512
508,508,508,508,508,508,508,508,508,513,512,510,508,499,512,511,515,512
502,502,502,502,502,502,502,502,502,513,507,511,508,499,512,511,515,512
496,496,496,496,496,496,496,496,496,513,504,511,508,499,512,511,515,512
492,492,492,492,492,492,492,492,492,513,499,510,508,498,512,512,513,512
487,487,487,487,487,487,487,487,487,513,496,511,507,499,511,511,513,512
484,484,484,484,484,484,484,484,484,512,496,510,508,499,511,512,513,512
483,483,483,483,483,483,483,483,483,512,492,510,508,499,509,512,512,512
484,484,484,484,484,484,484,484,484,512,492,510,508,500,508,512,511,513
487,487,487,487,487,487,487,487,487,511,492,511,508,502,507,513,511,513
489,489,489,489,489,489,489,489,489,510,492,511,508,503,504,515,510,513
492,492,492,492,492,492,492,492,492,509,494,511,507,504,504,515,511,515
497,497,497,497,497,497,497,497,497,508,495,511,508,504,504,515,511,515
503,503,503,503,503,503,503,503,503,508,496,512,508,505,504,516,510,515
507,507,507,507,507,507,507,507,507,508,499,512,508,507,503,518,511,515
510,510,510,510,510,510,510,510,510,508,500,512,508,508,503,518,510,515
513,513,513,513,513,513,513,513,513,508,504,512,508,508,503,518,510,515
515,515,515,515,515,515,515,515,515,508,505,512,508,511,503,519,510,515
518,518,518,518,518,518,518,518,518,508,508,512,508,512,502,519,510,515
519,519,519,519,519,519,519,519,519,508,510,512,508,513,502,519,510,515
518,518,518,518,518,518,518,518,518,508,511,512,509,514,503,516,508,515
518,518,518,518,518,518,518,518,518,508,511,511,510,515,503,515,508,515
515,515,515,515,515,515,515,515,515,507,512,511,510,515,503,515,508,513
513,513,513,513,513,513,513,513,513,505,512,511,511,515,503,514,508,513
512,512,512,512,512,512,512,512,512,505,512,511,510,516,503,513,508,512
510,510,510,510,510,510,510,510,510,505,512,511,510,515,504,512,508,512
508,508,508,508,508,508,508,508,508,505,511,511,509,515,502,511,508,512
504,504,504,504,504,504,504,504,504,507,511,511,508,513,502,511,509,512
499,499,499,499,499,499,499,499,499,507,510,511,507,512,500,511,510,513
497,497,497,497,497,497,497,497,497,508,508,511,507,511,500,511,510,513
495,495,495,495,495,495,495,495,495,508,508,511,507,508,500,512,510,513
492,492,492,492,492,492,492,492,492,508,505,511,507,507,500,512,511,513
491,491,491,491,491,491,491,491,491,509,504,511,507,504,500,512,511,512
489,489,489,489,489,489,489,489,489,508,504,511,508,503,501,512,511,513
487,487,487,487,487,487,487,487,487,508,502,511,508,502,502,512,511,512
487,487,487,487,487,487,487,487,487,509,500,511,508,500,502,513,511,512
487,487,487,487,487,487,487,487,487,508,499,511,508,499,502,513,510,511
487,487,487,487,487,487,487,487,487,508,497,511,509,499,503,513,511,511
487,487,487,487,487,487,487,487,487,508,496,511,510,499,504,514,511,511
487,487,487,487,487,487,487,487,487,508,495,511,510,499,504,515,511,510
488,488,488,488,488,488,488,488,488,508,493,510,511,497,507,513,511,510
488,488,488,488,488,488,488,488,488,511,492,510,510,497,510,515,510,510
487,487,487,487,487,487,487,487,487,511,492,510,510,499,512,515,511,510
487,487,487,487,487,487,487,487,487,512,492,510,511,500,515,515,510,510
487,487,487,487,487,487,487,487,487,512,492,510,510,504,519,513,510,510
487,487,487,487,487,487,487,487,487,514,492,511,511,505,523,513,510,510
488,488,488,488,488,488,488,488,488,515,492,510,511,509,527,512,510,510
487,487,487,487,487,487,487,487,487,515,492,511,511,512,529,512,510,510
488,488,488,488,488,488,488,488,488,515,492,510,512,515,531,511,510,510
489,489,489,489,489,489,489,489,489,517,492,511,512,519,534,511,510,510
489,489,489,489,489,489,489,489,489,518,492,510,513,519,536,511,510,508
489,489,489,489,489,489,489,489,489,519,492,510,515,521,536,511,510,510
489,489,489,489,489,489,489,489,489,519,492,509,514,523,536,510,510,509
489,489,489,489,489,489,489,489,489,519,492,508,515,521,537,510,510,508
490,490,490,490,490,490,490,490,490,521,492,508,515,519,537,510,509,510
491,491,491,491,491,491,491,491,491,521,492,508,515,518,536,510,509,508
492,492,492,492,492,492,492,492,492,521,493,508,515,515,535,511,508,510
496,496,496,496,496,496,496,496,496,521,492,509,515,512,531,510,508,510
499,499,499,499,499,499,499,499,499,520,493,508,515,509,529,511,508,510
507,507,507,507,507,507,507,507,507,519,494,508,515,504,527,511,508,510
515,515,515,515,515,515,515,515,515,519,495,508,514,503,524,512,508,510
524,524,524,524,524,524,524,524,524,519,496,508,513,499,523,512,508,510
534,534,534,534,534,534,534,534,534,518,496,508,513,496,519,512,508,511
542,542,542,542,542,542,542,542,542,516,496,508,513,494,518,512,508,511
551,551,551,551,551,551,551,551,551,515,497,508,513,492,515,511,508,511
560,560,560,560,560,560,560,560,560,515,497,508,512,487,515,511,508,511
566,566,566,566,566,566,566,566,566,514,497,508,512,487,513,511,508,511
569,569,569,569,569,569,569,569,569,513,497,508,512,486,512,511,508,511
572,572,572,572,572,572,572,572,572,513,497,508,512,484,511,512,510,511
572,572,572,572,572,572,572,572,572,512,499,508,512,483,511,512,510,511
571,571,571,571,571,571,571,571,571,511,499,508,511,483,510,512,511,512
568,568,568,568,568,568,568,568,568,511,504,508,510,483,510,512,512,512
563,563,563,563,563,563,563,563,563,511,507,508,510,482,508,511,512,512
556,556,556,556,556,556,556,556,556,511,511,508,510,483,508,511,512,512
549,549,549,549,549,549,549,549,549,510,516,508,510,483,508,511,513,512
542,542,542,542,542,542,542,542,542,511,523,508,510,483,508,511,513,512
534,534,534,534,534,534,534,534,534,511,529,510,510,484,508,511,513,512
526,526,526,526,526,526,526,526,526,510,536,510,510,486,508,511,513,512
518,518,518,518,518,518,518,518,518,510,543,511,510,487,510,511,513,512
510,510,510,510,510,510,510,510,510,510,548,512,510,487,510,511,513,512
504,504,504,504,504,504,504,504,504,508,553,512,510,489,511,511,513,512
496,496,496,496,496,496,496,496,496,508,556,512,511,491,511,511,512,512
492,492,492,492,492,492,492,492,492,510,559,512,511,492,510,511,512,512
487,487,487,487,487,487,487,487,487,510,560,513,511,492,510,511,512,512
487,487,487,487,487,487,487,487,487,512,558,513,511,492,510,512,512,512
484,484,484,484,484,484,484,484,484,512,556,514,511,492,509,512,512,511
483,483,483,483,483,483,483,483,483,512,551,515,511,493,508,512,511,512
484,484,484,484,484,484,484,484,484,512,546,514,511,494,508,513,511,511
487,487,487,487,487,487,487,487,487,512,540,515,511,494,508,513,511,511
491,491,491,491,491,491,491,491,491,511,534,515,511,495,507,513,511,511
494,494,494,494,494,494,494,494,494,511,527,513,511,496,505,515,510,511
499,499,499,499,499,499,499,499,499,510,521,513,511,496,504,515,511,511
504,504,504,504,504,504,504,504,504,510,518,513,510,495,504,515,511,511
508,508,508,508,508,508,508,508,508,508,512,512,510,494,504,515,511,510
512,512,512,512,512,512,512,512,512,508,508,512,510,494,503,515,511,511
515,515,515,515,515,515,515,515,515,508,504,512,509,494,502,515,511,510
518,518,518,518,518,518,518,518,518,508,499,511,508,495,502,515,511,510
519,519,519,519,519,519,519,519,519,507,496,511,508,495,499,515,511,510
519,519,519,519,519,519,519,519,519,507,494,511,508,496,499,515,511,510
518,518,518,518,518,518,518,518,518,507,494,511,508,496,499,515,511,508
516,516,516,516,516,516,516,516,516,507,492,511,507,496,499,515,510,510
515,515,515,515,515,515,515,515,515,505,492,510,507,496,499,515,511,509
512,512,512,512,512,512,512,512,512,505,493,510,508,496,500,515,510,508
510,510,510,510,510,510,510,510,510,505,494,510,508,497,500,515,510,508
507,507,507,507,507,507,507,507,507,504,495,509,508,498,500,515,510,508
504,504,504,504,504,504,504,504,504,504,496,508,508,499,500,515,510,508
499,499,499,499,499,499,499,499,499,504,496,508,508,500,502,514,509,507
497,497,497,497,497,497,497,497,497,504,499,508,508,502,502,514,508,507
496,496,496,496,496,496,496,496,496,504,500,508,508,502,502,513,508,507
492,492,492,492,492,492,492,492,492,504,503,508,508,503,502,513,508,505
491,491,491,491,491,491,491,491,491,504,504,508,509,504,503,513,508,505
488,488,488,488,488,488,488,488,488,505,505,508,509,504,502,512,508,505
487,487,487,487,487,487,487,487,487,505,505,508,508,504,503,513,508,507
487,487,487,487,487,487,487,487,487,507,507,508,509,505,503,512,508,507
487,487,487,487,487,487,487,487,487,507,507,508,508,507,504,512,508,507
486,486,486,486,486,486,486,486,486,508,507,509,508,508,504,513,508,507
484,484,484,484,484,484,484,484,484,508,505,508,508,508,504,512,508,508
483,483,483,483,483,483,483,483,483,508,505,510,510,510,504,512,508,507
483,483,483,483,483,483,483,483,483,508,507,510,508,511,504,513,508,507
483,483,483,483,483,483,483,483,483,510,505,510,508,512,504,513,508,507
482,482,482,482,482,482,482,482,482,510,505,510,509,513,504,513,508,507
483,483,483,483,483,483,483,483,483,511,505,511,508,513,502,513,508,507
483,483,483,483,483,483,483,483,483,512,504,510,510,513,502,513,508,508
483,483,483,483,483,483,483,483,483,512,504,510,508,515,502,513,508,508
483,483,483,483,483,483,483,483,483,512,504,510,508,514,502,513,508,508
483,483,483,483,483,483,483,483,483,512,503,510,508,513,502,513,508,508
486,486,486,486,486,486,486,486,486,515,504,510,507,513,502,512,508,508
487,487,487,487,487,487,487,487,487,515,502,510,507,512,502,513,508,510
487,487,487,487,487,487,487,487,487,515,500,510,505,511,502,512,508,510
487,487,487,487,487,487,487,487,487,518,499,510,505,511,504,513,508,511
487,487,487,487,487,487,487,487,487,518,499,510,505,510,504,512,509,511
487,487,487,487,487,487,487,487,487,519,497,510,507,509,507,513,509,511
488,488,488,488,488,488,488,488,488,519,496,510,507,508,510,513,509,512
491,491,491,491,491,491,491,491,491,519,496,510,507,508,512,513,510,513
496,496,496,496,496,496,496,496,496,519,495,508,508,508,516,512,510,513
499,499,499,499,499,499,499,499,499,519,494,508,510,508,519,512,510,513
508,508,508,508,508,508,508,508,508,520,494,508,511,508,523,512,510,513
516,516,516,516,516,516,516,516,516,521,494,508,513,507,526,512,510,513
527,527,527,527,527,527,527,527,527,521,493,509,515,507,528,512,509,514
537,537,537,537,537,537,537,537,537,521,494,510,515,505,531,512,510,515
548,548,548,548,548,548,548,548,548,520,494,510,516,504,532,512,509,515
558,558,558,558,558,558,558,558,558,519,494,510,518,504,535,512,510,515
567,567,567,567,567,567,567,567,567,519,494,511,519,504,536,512,510,515
574,574,574,574,574,574,574,574,574,519,494,511,519,504,536,512,510,514
579,579,579,579,579,579,579,579,579,519,494,511,519,504,536,512,511,513
580,580,580,580,580,580,580,580,580,517,495,511,518,504,536,512,511,513
582,582,582,582,582,582,582,582,582,515,496,511,516,504,536,512,512,512
579,579,579,579,579,579,579,579,579,515,496,511,515,505,534,512,512,511
575,575,575,575,575,575,575,575,575,513,496,511,516,505,531,511,511,511
568,568,568,568,568,568,568,568,568,512,496,511,515,507,528,511,512,510
561,561,561,561,561,561,561,561,561,511,497,512,515,507,526,510,512,510
553,553,553,553,553,553,553,553,553,510,499,511,514,507,524,511,512,510
545,545,545,545,545,545,545,545,545,510,499,511,513,505,523,510,512,510
537,537,537,537,537,537,537,537,537,510,499,511,513,505,519,510,512,510
529,529,529,529,529,529,529,529,529,510,498,512,513,504,519,510,512,510
521,521,521,521,521,521,521,521,521,511,497,512,513,504,518,510,512,510
515,515,515,515,515,515,515,515,515,510,497,512,512,504,515,510,512,510
508,508,508,508,508,508,508,508,508,510,497,513,511,504,514,510,512,510
503,503,503,503,503,503,503,503,503,510,497,512,511,504,513,510,511,510
496,496,496,496,496,496,496,496,496,510,499,512,511,503,512,510,511,510
492,492,492,492,492,492,492,492,492,510,499,512,510,503,511,510,511,510
489,489,489,489,489,489,489,489,489,510,499,512,510,503,510,510,511,511
487,487,487,487,487,487,487,487,487,510,500,511,509,502,510,510,510,511
487,487,487,487,487,487,487,487,487,511,502,511,510,502,510,511,511,511
489,489,489,489,489,489,489,489,489,511,502,511,509,502,510,511,510,511
492,492,492,492,492,492,492,492,492,511,504,510,509,502,511,511,510,511
494,494,494,494,494,494,494,494,494,511,504,510,509,502,511,511,510,511
499,499,499,499,499,499,499,499,499,511,504,510,510,502,511,511,509,511
504,504,504,504,504,504,504,504,504,511,504,510,511,502,511,512,510,511
508,508,508,508,508,508,508,508,508,511,505,510,510,502,511,513,510,512
512,512,512,512,512,512,512,512,512,511,508,510,511,503,511,514,510,512
515,515,515,515,515,515,515,515,515,511,511,511,510,504,511,515,510,512
518,518,518,518,518,518,518,518,518,511,514,511,510,504,510,515,511,512
519,519,519,519,519,519,519,519,519,510,519,511,510,504,510,516,511,511
520,520,520,520,520,520,520,520,520,510,524,510,510,504,509,516,511,511
521,521,521,521,521,521,521,521,521,508,528,510,510,504,508,518,512,510
521,521,521,521,521,521,521,521,521,508,534,510,510,504,508,518,512,508
519,519,519,519,519,519,519,519,519,508,537,510,510,504,506,518,512,508
518,518,518,518,518,518,518,518,518,508,543,509,511,504,505,518,512,509
515,515,515,515,515,515,515,515,515,507,545,508,511,505,504,516,512,509
512,512,512,512,512,512,512,512,512,508,547,509,511,507,504,515,512,509
508,508,508,508,508,508,508,508,508,508,548,508,511,507,504,515,512,508
505,505,505,505,505,505,505,505,505,508,548,508,511,507,504,515,511,508
503,503,503,503,503,503,503,503,503,507,547,509,511,508,504,515,512,508
499,499,499,499,499,499,499,499,499,508,543,508,510,508,504,515,512,508
496,496,496,496,496,496,496,496,496,508,540,509,510,508,504,515,511,508
492,492,492,492,492,492,492,492,492,508,535,509,508,510,504,515,511,508
489,489,489,489,489,489,489,489,489,508,529,509,508,510,504,515,511,508
487,487,487,487,487,487,487,487,487,508,524,508,508,511,504,515,511,508
487,487,487,487,487,487,487,487,487,510,519,508,508,512,504,513,510,508
484,484,484,484,484,484,484,484,484,508,512,508,508,515,503,513,510,508
486,486,486,486,486,486,486,486,486,508,508,508,508,515,502,512,509,508
486,486,486,486,486,486,486,486,486,509,504,508,508,516,500,512,508,508
486,486,486,486,486,486,486,486,486,508,499,508,508,516,500,512,508,508
487,487,487,487,487,487,487,487,487,509,496,508,508,517,500,512,508,508
487,487,487,487,487,487,487,487,487,508,493,508,508,516,500,512,508,510
487,487,487,487,487,487,487,487,487,508,491,508,508,518,500,512,508,511
488,488,488,488,488,488,488,488,488,509,487,508,507,518,499,512,508,511
489,489,489,489,489,489,489,489,489,510,487,508,506,516,500,512,508,512
491,491,491,491,491,491,491,491,491,511,487,508,507,515,499,511,508,512
491,491,491,491,491,491,491,491,491,511,487,508,505,515,499,511,508,512
492,492,492,492,492,492,492,492,492,512,487,508,507,515,499,511,508,513
492,492,492,492,492,492,492,492,492,513,489,508,507,515,499,511,508,513
492,492,492,492,492,492,492,492,492,513,492,508,507,515,499,512,508,513
491,491,491,491,491,491,491,491,491,515,495,508,507,515,499,511,508,513
491,491,491,491,491,491,491,491,491,515,496,508,508,514,499,512,508,513
491,491,491,491,491,491,491,491,491,516,499,510,508,513,499,512,508,512
491,491,491,491,491,491,491,491,491,518,503,510,508,512,500,512,508,512
491,491,491,491,491,491,491,491,491,519,504,510,508,511,502,512,509,512
492,492,492,492,492,492,492,492,492,519,507,510,508,510,503,512,509,512
492,492,492,492,492,492,492,492,492,519,508,510,508,508,503,512,508,511
492,492,492,492,492,492,492,492,492,519,510,511,508,508,504,512,510,511
496,496,496,496,496,496,496,496,496,519,510,511,508,507,504,512,510,511
499,499,499,499,499,499,499,499,499,519,510,512,508,507,504,513,510,511
504,504,504,504,504,504,504,504,504,521,510,512,508,507,504,513,511,511
511,511,511,511,511,511,511,511,511,521,509,512,508,505,504,512,511,511
519,519,519,519,519,519,519,519,519,521,508,512,508,507,504,513,511,511
527,527,527,527,527,527,527,527,527,522,508,513,508,507,504,513,511,511
537,537,537,537,537,537,537,537,537,523,508,513,510,507,503,512,512,511
547,547,547,547,547,547,547,547,547,523,505,513,510,507,500,512,512,511
557,557,557,557,557,557,557,557,557,521,504,514,511,507,500,512,513,511
566,566,566,566,566,566,566,566,566,521,504,513,511,508,499,511,514,511
572,572,572,572,572,572,572,572,572,519,502,513,512,508,500,511,513,511
577,577,577,577,577,577,577,577,577,519,500,512,512,508,503,511,515,511
