377,377,377,377,377,377,377,377,377,488,547,580,540,424,511,451,528,397
377,377,377,377,377,377,377,377,377,466,551,577,319,450,504,451,540,423
379,379,379,379,379,379,379,379,379,487,535,584,531,436,518,455,536,425
382,382,382,382,382,382,382,382,382,480,566,579,310,455,518,451,546,432
380,380,380,380,380,380,380,380,380,486,579,588,513,429,496,432,552,481
374,374,374,374,374,374,374,374,374,513,575,588,284,460,505,435,547,510
377,377,377,377,377,377,377,377,377,510,582,585,480,441,504,428,551,516
385,385,385,385,385,385,385,385,385,483,636,583,248,456,487,418,563,510
380,380,380,380,380,380,380,380,380,523,611,577,471,447,508,443,568,496
379,379,379,379,379,379,379,379,379,484,609,575,243,475,484,452,588,481
387,387,387,387,387,387,387,387,387,496,617,572,460,449,492,467,583,491
393,393,393,393,393,393,393,393,393,493,615,569,257,485,503,444,593,475
403,403,403,403,403,403,403,403,403,487,604,569,455,474,516,481,596,460
407,407,407,407,407,407,407,407,407,475,588,567,248,505,498,632,580,444
406,406,406,406,406,406,406,406,406,480,604,570,466,479,502,728,595,416
412,412,412,412,412,412,412,412,412,449,609,569,232,519,503,579,590,438
414,414,414,414,414,414,414,414,414,472,575,569,449,503,531,472,566,531
407,407,407,407,407,407,407,407,407,459,611,569,203,525,518,472,555,611
407,407,407,407,407,407,407,407,407,592,737,570,412,513,520,462,536,494
393,393,393,393,393,393,393,393,393,694,911,570,184,541,521,454,523,394
380,380,380,380,380,380,380,380,380,519,940,572,371,489,544,462,493,382
361,361,361,361,361,361,361,361,361,472,743,570,167,505,527,460,479,374
348,348,348,348,348,348,348,348,348,478,624,573,351,472,539,449,465,381
319,319,319,319,319,319,319,319,319,451,604,572,171,467,536,444,462,377
304,304,304,304,304,304,304,304,304,467,603,570,399,441,515,443,462,395
295,295,295,295,295,295,295,295,295,465,614,573,235,452,483,455,462,398
291,291,291,291,291,291,291,291,291,460,614,573,366,436,463,492,460,380
287,287,287,287,287,287,287,287,287,482,601,573,0,449,432,471,457,399
281,281,281,281,281,281,281,281,281,499,620,572,176,433,422,470,463,395
290,290,290,290,290,290,290,290,290,485,620,569,46,456,406,487,473,393
287,287,287,287,287,287,287,287,287,464,608,573,304,420,415,508,470,414
289,289,289,289,289,289,289,289,289,476,607,573,108,456,419,513,451,416
303,303,303,303,303,303,303,303,303,477,615,574,335,432,448,520,471,411
305,305,305,305,305,305,305,305,305,465,615,578,120,455,428,524,478,441
316,316,316,316,316,316,316,316,316,487,601,575,323,433,451,535,470,432
317,317,317,317,317,317,317,317,317,496,614,576,107,439,468,553,471,438
335,335,335,335,335,335,335,335,335,499,632,576,295,424,486,553,464,458
339,339,339,339,339,339,339,339,339,508,621,577,96,460,483,550,465,470
332,332,332,332,332,332,332,332,332,499,622,576,301,433,502,542,468,460
354,354,354,354,354,354,354,354,354,508,654,573,108,450,499,526,470,468
358,358,358,358,358,358,358,358,358,515,647,578,312,433,496,511,465,470
355,355,355,355,355,355,355,355,355,548,639,576,103,444,492,497,468,467
368,368,368,368,368,368,368,368,368,547,626,578,316,424,502,504,463,449
366,366,366,366,366,366,366,366,366,526,639,580,92,447,497,499,468,443
371,371,371,371,371,371,371,371,371,545,636,589,308,425,500,507,470,419
368,368,368,368,368,368,368,368,368,564,615,607,87,445,494,519,462,415
376,376,376,376,376,376,376,376,376,518,579,605,318,434,515,524,455,408
361,361,361,361,361,361,361,361,361,533,577,562,102,452,492,513,470,391
364,364,364,364,364,364,364,364,364,499,570,547,311,425,507,526,479,376
358,358,358,358,358,358,358,358,358,477,547,564,110,441,507,536,476,387
352,352,352,352,352,352,352,352,352,457,532,573,288,437,504,547,480,390
339,339,339,339,339,339,339,339,339,460,542,573,70,442,483,566,484,391
332,332,332,332,332,332,332,332,332,457,539,573,253,436,495,579,467,374
327,327,327,327,327,327,327,327,327,480,521,569,3,450,485,579,472,391
318,318,318,318,318,318,318,318,318,444,537,576,152,434,481,600,489,390
318,318,318,318,318,318,318,318,318,462,531,580,0,468,483,606,494,387
308,308,308,308,308,308,308,308,308,459,519,576,105,447,486,603,499,399
311,311,311,311,311,311,311,311,311,464,527,576,0,481,480,614,492,403
304,304,304,304,304,304,304,304,304,452,537,578,124,460,486,606,483,404
305,305,305,305,305,305,305,305,305,463,527,576,0,481,476,615,476,399
306,306,306,306,306,306,306,306,306,452,521,576,80,449,481,642,456,407
317,317,317,317,317,317,317,317,317,457,535,576,0,463,502,636,472,403
326,326,326,326,326,326,326,326,326,448,548,580,96,418,504,632,467,419
344,344,344,344,344,344,344,344,344,455,540,576,0,445,497,621,460,430
337,337,337,337,337,337,337,337,337,483,531,584,67,429,504,625,467,423
339,339,339,339,339,339,339,339,339,476,547,580,0,445,487,624,463,455
350,350,350,350,350,350,350,350,350,452,542,585,57,424,467,630,502,457
344,344,344,344,344,344,344,344,344,449,531,589,0,436,480,628,630,472
339,339,339,339,339,339,339,339,339,455,543,591,71,424,484,609,807,483
335,335,335,335,335,335,335,335,335,480,555,587,0,445,481,647,700,496
339,339,339,339,339,339,339,339,339,455,543,584,84,416,483,644,465,488
335,335,335,335,335,335,335,335,335,491,536,583,0,464,478,626,452,517
332,332,332,332,332,332,332,332,332,451,542,583,110,520,492,633,485,499
342,342,342,342,342,342,342,342,342,472,531,580,0,652,492,630,467,511
339,339,339,339,339,339,339,339,339,452,536,580,83,484,492,638,469,476
304,304,304,304,304,304,304,304,304,483,551,575,0,385,489,628,476,465
344,344,344,344,344,344,344,344,344,475,534,575,100,426,502,635,478,463
487,487,487,487,487,487,487,487,487,463,526,573,0,461,609,627,491,452
604,604,604,604,604,604,604,604,604,467,536,573,65,440,671,632,507,441
452,452,452,452,452,452,452,452,452,484,527,573,0,461,513,627,503,460
267,267,267,267,267,267,267,267,267,451,521,576,81,441,473,649,512,451
286,286,286,286,286,286,286,286,286,470,524,578,0,453,480,643,536,473
300,300,300,300,300,300,300,300,300,459,524,575,31,445,484,624,525,600
312,312,312,312,312,312,312,312,312,472,519,572,0,477,480,611,527,657
310,310,310,310,310,310,310,310,310,475,513,577,48,445,480,608,560,550
316,316,316,316,316,316,316,316,316,471,543,578,0,473,480,595,571,467
312,312,312,312,312,312,312,312,312,476,536,581,56,444,480,606,569,473
315,315,315,315,315,315,315,315,315,481,534,580,0,477,483,591,582,460
316,316,316,316,316,316,316,316,316,467,519,576,17,461,476,593,580,472
318,318,318,318,318,318,318,318,318,496,531,575,0,490,472,572,565,486
319,319,319,319,319,319,319,319,319,509,508,580,39,477,480,615,563,473
319,319,319,319,319,319,319,319,319,494,513,576,0,500,473,736,575,489
318,318,318,318,318,318,318,318,318,496,504,580,11,490,482,875,552,497
319,319,319,319,319,319,319,319,319,476,518,576,0,511,484,798,543,523
316,316,316,316,316,316,316,316,316,475,510,576,0,498,497,636,527,521
327,327,327,327,327,327,327,327,327,432,495,575,0,531,489,600,504,541
340,340,340,340,340,340,340,340,340,472,516,576,0,521,508,590,500,540
345,345,345,345,345,345,345,345,345,467,512,576,0,548,487,575,487,531
358,358,358,358,358,358,358,358,358,460,497,584,0,527,529,579,496,526
359,359,359,359,359,359,359,359,359,487,568,576,0,537,512,573,482,519
366,366,366,366,366,366,366,366,366,588,743,580,12,505,523,572,489,515
368,368,368,368,368,368,368,368,368,697,849,580,0,501,511,563,497,524
366,366,366,366,366,366,366,366,366,463,656,588,211,466,527,553,497,503
350,350,350,350,350,350,350,350,350,440,520,580,0,473,511,547,496,499
335,335,335,335,335,335,335,335,335,463,492,583,0,449,523,537,487,499
326,326,326,326,326,326,326,326,326,463,497,578,0,461,505,531,492,504
291,291,291,291,291,291,291,291,291,476,505,580,0,435,467,540,492,483
286,286,286,286,286,286,286,286,286,475,505,576,0,452,425,536,497,481
278,278,278,278,278,278,278,278,278,465,504,579,0,449,438,527,499,464
268,268,268,268,268,268,268,268,268,472,524,576,0,465,403,518,497,472
243,243,243,243,243,243,243,243,243,476,515,583,0,449,400,531,507,459
240,240,240,240,240,240,240,240,240,462,523,592,0,465,415,519,496,441
236,236,236,236,236,236,236,236,236,473,532,612,0,443,415,534,504,423
244,244,244,244,244,244,244,244,244,482,524,594,0,461,419,536,495,425
249,249,249,249,249,249,249,249,249,483,527,546,2,446,435,534,499,424
254,254,254,254,254,254,254,254,254,492,529,557,0,465,438,539,496,441
260,260,260,260,260,260,260,260,260,489,547,569,19,442,449,524,492,435
272,272,272,272,272,272,272,272,272,492,550,573,0,471,449,502,508,433
285,285,285,285,285,285,285,285,285,496,569,580,85,445,473,487,493,449
286,286,286,286,286,286,286,286,286,492,575,576,0,464,480,478,499,466
307,307,307,307,307,307,307,307,307,496,574,575,67,450,495,467,512,472
307,307,307,307,307,307,307,307,307,527,569,570,0,473,496,464,504,479
319,319,319,319,319,319,319,319,319,551,589,576,140,441,504,467,508,467
329,329,329,329,329,329,329,329,329,536,591,578,0,464,489,444,511,460
335,335,335,335,335,335,335,335,335,539,584,576,153,450,486,454,521,455
334,334,334,334,334,334,334,334,334,542,575,578,0,477,487,441,501,448
348,348,348,348,348,348,348,348,348,551,569,583,127,455,502,447,503,438
345,345,345,345,345,345,345,345,345,536,547,584,0,468,487,428,510,448
339,339,339,339,339,339,339,339,339,527,544,583,38,456,491,441,515,429
347,347,347,347,347,347,347,347,347,515,542,581,0,476,472,454,512,430
338,338,338,338,338,338,338,338,338,502,519,584,0,464,483,447,527,423
343,343,343,343,343,343,343,343,343,508,519,588,0,487,473,431,547,425
329,329,329,329,329,329,329,329,329,467,505,588,0,464,486,443,535,427
334,334,334,334,334,334,334,334,334,457,504,591,0,495,465,443,534,423
327,327,327,327,327,327,327,327,327,460,519,595,0,473,467,448,515,419
319,319,319,319,319,319,319,319,319,460,521,591,0,500,467,457,496,436
327,327,327,327,327,327,327,327,327,454,515,594,0,497,486,481,491,432
319,319,319,319,319,319,319,319,319,454,516,592,0,469,477,499,518,428
315,315,315,315,315,315,315,315,315,455,528,584,0,443,480,498,515,428
318,318,318,318,318,318,318,318,318,467,543,584,0,444,463,503,519,403
316,316,316,316,316,316,316,316,316,467,543,588,0,413,477,503,512,404
316,316,316,316,316,316,316,316,316,455,542,576,0,439,472,494,500,401
310,310,310,310,310,310,310,310,310,463,548,580,0,418,478,511,519,399
312,312,312,312,312,312,312,312,312,464,543,576,0,429,470,505,632,396
316,316,316,316,316,316,316,316,316,453,566,576,0,423,508,511,816,401
313,313,313,313,313,313,313,313,313,454,564,581,0,449,486,502,787,398
327,327,327,327,327,327,327,327,327,455,555,580,0,416,489,513,551,454
335,335,335,335,335,335,335,335,335,446,582,579,0,445,480,499,515,551
352,352,352,352,352,352,352,352,352,489,579,580,0,505,476,495,520,543
339,339,339,339,339,339,339,339,339,499,568,580,0,625,472,489,513,462
343,343,343,343,343,343,343,343,343,486,574,580,0,464,481,504,520,408
347,347,347,347,347,347,347,347,347,446,572,580,0,373,461,504,511,430
335,335,335,335,335,335,335,335,335,478,563,581,6,407,476,505,496,416
327,327,327,327,327,327,327,327,327,472,575,583,0,461,476,499,523,423
335,335,335,335,335,335,335,335,335,480,567,580,28,433,486,519,524,412
327,327,327,327,327,327,327,327,327,473,569,580,0,458,478,504,529,408
327,327,327,327,327,327,327,327,327,480,572,584,64,445,492,496,531,416
335,335,335,335,335,335,335,335,335,476,574,580,0,468,496,494,532,431
323,323,323,323,323,323,323,323,323,465,583,584,0,465,495,494,558,423
304,304,304,304,304,304,304,304,304,480,563,581,0,473,561,487,551,419
303,303,303,303,303,303,303,303,303,478,568,580,0,464,692,496,575,431
411,411,411,411,411,411,411,411,411,467,566,584,0,485,583,497,575,444
560,560,560,560,560,560,560,560,560,494,563,581,0,469,484,494,577,440
575,575,575,575,575,575,575,575,575,475,574,584,0,477,480,489,581,448
322,322,322,322,322,322,322,322,322,480,560,584,0,457,504,489,582,444
255,255,255,255,255,255,255,255,255,481,529,584,0,481,477,602,583,464
295,295,295,295,295,295,295,295,295,478,556,583,0,473,480,764,584,467
295,295,295,295,295,295,295,295,295,487,550,588,0,497,473,740,575,463
304,304,304,304,304,304,304,304,304,497,532,585,0,497,480,585,560,476
299,299,299,299,299,299,299,299,299,479,540,584,0,512,476,517,536,479
312,312,312,312,312,312,312,312,312,482,545,584,0,513,491,513,526,487
306,306,306,306,306,306,306,306,306,489,536,589,0,530,489,504,500,491
316,316,316,316,316,316,316,316,316,483,536,586,0,530,491,487,486,468
304,304,304,304,304,304,304,304,304,511,630,584,0,541,460,480,470,473
315,315,315,315,315,315,315,315,315,508,795,590,7,528,499,496,467,452
318,318,318,318,318,318,318,318,318,513,876,589,0,537,494,492,465,441
318,318,318,318,318,318,318,318,318,487,689,591,8,514,508,491,444,422
323,323,323,323,323,323,323,323,323,478,547,589,0,513,487,481,460,403
327,327,327,327,327,327,327,327,327,475,534,585,0,481,508,489,467,399
335,335,335,335,335,335,335,335,335,463,552,584,0,476,497,489,455,392
339,339,339,339,339,339,339,339,339,441,551,586,0,461,512,507,481,383
344,344,344,344,344,344,344,344,344,476,550,585,0,466,523,503,472,396
355,355,355,355,355,355,355,355,355,492,551,592,3,453,536,512,481,387
358,358,358,358,358,358,358,358,358,588,556,609,0,463,536,518,476,398
364,364,364,364,364,364,364,364,364,694,555,625,120,458,551,531,472,396
364,364,364,364,364,364,364,364,364,515,560,601,7,466,527,534,463,399
369,369,369,369,369,369,369,369,369,423,572,561,28,449,529,544,480,392
355,355,355,355,355,355,355,355,355,456,561,572,0,468,513,551,487,403
347,347,347,347,347,347,347,347,347,455,571,580,0,435,483,560,481,401
335,335,335,335,335,335,335,335,335,487,583,584,0,461,443,553,487,409
310,310,310,310,310,310,310,310,310,481,588,588,0,441,439,548,487,401
289,289,289,289,289,289,289,289,289,478,585,585,0,464,417,527,481,408
286,286,286,286,286,286,286,286,286,478,588,586,0,441,419,519,483,420
278,278,278,278,278,278,278,278,278,468,604,586,0,455,432,508,483,432
259,259,259,259,259,259,259,259,259,473,608,589,25,433,425,507,466,419
267,267,267,267,267,267,267,267,267,468,612,586,0,451,413,497,476,428
265,265,265,265,265,265,265,265,265,481,622,592,7,436,432,497,486,441
262,262,262,262,262,262,262,262,262,500,627,590,0,456,430,495,479,443
271,271,271,271,271,271,271,271,271,504,615,589,44,437,454,508,481,451
275,275,275,275,275,275,275,275,275,496,614,589,0,452,460,508,487,460
278,278,278,278,278,278,278,278,278,489,608,591,71,437,475,519,489,443
291,291,291,291,291,291,291,291,291,496,591,591,0,458,454,510,480,476
299,299,299,299,299,299,299,299,299,511,579,596,115,433,467,515,472,476
316,316,316,316,316,316,316,316,316,516,564,594,0,463,467,519,483,455
321,321,321,321,321,321,321,321,321,515,551,599,204,449,471,524,486,451
327,327,327,327,327,327,327,327,327,527,556,597,0,464,471,515,512,452
345,345,345,345,345,345,345,345,345,572,560,601,199,441,496,545,505,440
345,345,345,345,345,345,345,345,345,547,540,605,0,456,485,518,517,441
364,364,364,364,364,364,364,364,364,563,557,601,215,433,480,526,492,444
366,366,366,366,366,366,366,366,366,575,553,601,0,450,483,531,486,444
380,380,380,380,380,380,380,380,380,560,543,594,156,436,481,543,491,448
384,384,384,384,384,384,384,384,384,536,553,589,0,464,463,531,480,473
384,384,384,384,384,384,384,384,384,519,559,589,102,456,483,542,467,606
382,382,382,382,382,382,382,382,382,499,563,584,0,491,470,535,462,646
388,388,388,388,388,388,388,388,388,481,561,585,48,481,467,551,467,526
386,386,386,386,386,386,386,386,386,476,562,585,0,500,468,536,476,480
376,376,376,376,376,376,376,376,376,465,571,589,38,477,467,551,466,468
387,387,387,387,387,387,387,387,387,475,563,584,0,466,451,531,553,463
376,376,376,376,376,376,376,376,376,467,588,589,8,456,486,531,731,448
366,366,366,366,366,366,366,366,366,479,579,591,0,464,466,545,824,452
355,355,355,355,355,355,355,355,355,460,575,589,1,452,463,547,591,460
361,361,361,361,361,361,361,361,361,448,572,587,0,460,467,528,440,455
358,358,358,358,358,358,358,358,358,444,566,583,0,426,484,556,483,450
348,348,348,348,348,348,348,348,348,484,568,584,0,430,462,560,480,447
348,348,348,348,348,348,348,348,348,455,580,584,0,403,481,551,472,457
342,342,342,342,342,342,342,342,342,473,569,584,0,400,467,537,472,462
335,335,335,335,335,335,335,335,335,482,564,586,0,356,455,551,483,462
342,342,342,342,342,342,342,342,342,476,569,581,0,447,460,561,472,465
352,352,352,352,352,352,352,352,352,462,550,584,0,541,472,568,488,459
347,347,347,347,347,347,347,347,347,475,563,583,0,596,452,556,485,476
358,358,358,358,358,358,358,358,358,476,572,581,0,413,472,543,480,465
377,377,377,377,377,377,377,377,377,462,545,581,0,409,449,543,496,475
371,371,371,371,371,371,371,371,371,460,551,580,0,429,475,540,516,476
371,371,371,371,371,371,371,371,371,472,547,583,0,450,463,536,515,502
377,377,377,377,377,377,377,377,377,495,551,576,0,444,480,547,519,497
355,355,355,355,355,355,355,355,355,486,540,576,0,463,473,531,539,488
368,368,368,368,368,368,368,368,368,496,555,576,110,449,496,541,555,483
356,356,356,356,356,356,356,356,356,473,553,578,0,464,551,508,543,481
356,356,356,356,356,356,356,356,356,463,529,576,153,439,657,512,543,465
366,366,366,366,366,366,366,366,366,463,521,575,0,441,558,620,542,443
369,369,369,369,369,369,369,369,369,475,519,576,192,416,471,788,542,443
368,368,368,368,368,368,368,368,368,480,518,578,0,388,457,748,536,432
352,352,352,352,352,352,352,352,352,484,513,580,199,289,471,588,524,415
335,335,335,335,335,335,335,335,335,491,513,578,0,333,461,534,505,417
419,419,419,419,419,419,419,419,419,460,507,579,190,410,460,539,492,412
572,572,572,572,572,572,572,572,572,478,526,583,0,471,455,515,457,417
635,635,635,635,635,635,635,635,635,479,513,584,198,468,470,520,432,423
399,399,399,399,399,399,399,399,399,484,514,580,0,500,457,518,430,423
312,312,312,312,312,312,312,312,312,483,599,579,172,509,472,540,419,425
339,339,339,339,339,339,339,339,339,487,768,574,0,532,452,527,403,430
348,348,348,348,348,348,348,348,348,496,867,578,184,528,470,540,415,435
359,359,359,359,359,359,359,359,359,483,704,576,0,551,472,528,423,432
356,356,356,356,356,356,356,356,356,483,546,575,208,551,481,543,415,430
359,359,359,359,359,359,359,359,359,519,503,584,0,558,476,543,428,438
359,359,359,359,359,359,359,359,359,512,519,605,185,556,488,547,425,422
359,359,359,359,359,359,359,359,359,487,508,618,0,559,484,545,419,423
350,350,350,350,350,350,350,350,350,500,497,584,212,519,497,569,425,444
363,363,363,363,363,363,363,363,363,496,513,552,0,544,502,567,446,423
364,364,364,364,364,364,364,364,364,485,528,571,231,500,510,575,433,429
359,359,359,359,359,359,359,359,359,465,516,573,0,495,502,591,422,432
363,363,363,363,363,363,363,363,363,470,515,573,239,484,526,611,430,428
366,366,366,366,366,366,366,366,366,499,520,576,0,493,511,599,444,435
371,371,371,371,371,371,371,371,371,473,515,580,227,479,526,615,431,423
379,379,379,379,379,379,379,379,379,470,529,576,0,500,518,624,428,423
384,384,384,384,384,384,384,384,384,477,536,580,200,481,510,603,441,425
386,386,386,386,386,386,386,386,386,611,545,589,0,503,495,591,443,430
400,400,400,400,400,400,400,400,400,675,547,584,220,479,463,582,428,425
398,398,398,398,398,398,398,398,398,467,547,584,0,493,444,561,435,432
403,403,403,403,403,403,403,403,403,455,536,586,207,485,423,563,433,432
406,406,406,406,406,406,406,406,406,472,579,586,79,497,411,555,425,435
393,393,393,393,393,393,393,393,393,480,566,591,319,489,420,568,428,415
387,387,387,387,387,387,387,387,387,467,563,587,0,500,406,547,428,440
369,369,369,369,369,369,369,369,369,463,551,593,0,482,423,560,441,440
356,356,356,356,356,356,356,356,356,478,563,592,0,497,409,545,428,422
340,340,340,340,340,340,340,340,340,463,560,591,7,488,433,551,433,429
319,319,319,319,319,319,319,319,319,483,543,596,0,488,428,560,448,443
315,315,315,315,315,315,315,315,315,472,510,594,19,481,450,567,447,421
304,304,304,304,304,304,304,304,304,499,519,599,0,488,446,552,423,480
297,297,297,297,297,297,297,297,297,485,505,596,30,476,457,562,441,598
292,292,292,292,292,292,292,292,292,500,478,595,0,484,450,550,469,646
291,291,291,291,291,291,291,291,291,492,490,596,99,461,472,574,481,540
297,297,297,297,297,297,297,297,297,489,480,584,0,476,466,556,472,470
303,303,303,303,303,303,303,303,303,492,467,584,163,473,483,563,460,451
310,310,310,310,310,310,310,310,310,510,480,577,0,473,475,548,440,463
326,326,326,326,326,326,326,326,326,524,480,580,237,474,489,551,448,451
321,321,321,321,321,321,321,321,321,511,474,573,12,488,487,551,431,449
335,335,335,335,335,335,335,335,335,525,467,573,280,468,491,550,435,451
344,344,344,344,344,344,344,344,344,539,489,576,20,485,492,556,440,462
359,359,359,359,359,359,359,359,359,551,476,568,304,479,497,540,441,455
365,365,365,365,365,365,365,365,365,563,475,564,32,505,487,543,440,459
374,374,374,374,374,374,374,374,374,559,476,567,315,495,495,547,433,460
380,380,380,380,380,380,380,380,380,575,487,569,39,514,472,540,451,455
386,386,386,386,386,386,386,386,386,553,475,569,321,505,494,545,590,472
400,400,400,400,400,400,400,400,400,561,516,567,60,523,480,524,781,475
401,401,401,401,401,401,401,401,401,535,491,561,341,493,489,539,718,479
391,391,391,391,391,391,391,391,391,496,487,565,56,503,475,533,454,472
399,399,399,399,399,399,399,399,399,494,505,564,316,498,501,534,428,476
403,403,403,403,403,403,403,403,403,479,497,573,24,484,486,512,463,497
408,408,408,408,408,408,408,408,408,465,496,564,280,477,483,511,448,487
395,395,395,395,395,395,395,395,395,463,491,565,14,477,465,527,455,508
384,384,384,384,384,384,384,384,384,476,504,569,272,484,480,518,441,502
385,385,385,385,385,385,385,385,385,480,495,569,7,481,467,508,460,515
387,387,387,387,387,387,387,387,387,459,480,569,268,456,479,519,476,511
387,387,387,387,387,387,387,387,387,472,499,569,0,479,451,510,472,508
376,376,376,376,376,376,376,376,376,471,492,565,254,471,483,504,455,483
368,368,368,368,368,368,368,368,368,470,460,569,0,481,465,491,483,496
359,359,359,359,359,359,359,359,359,448,493,567,241,456,483,510,498,470
361,361,361,361,361,361,361,361,361,462,489,564,0,508,483,502,505,459
361,361,361,361,361,361,361,361,361,487,476,563,268,613,497,497,511,444
359,359,359,359,359,359,359,359,359,455,472,565,7,705,470,487,519,450
369,369,369,369,369,369,369,369,369,475,494,567,284,482,489,502,528,435
364,364,364,364,364,364,364,364,364,485,489,569,12,437,472,483,529,432
379,379,379,379,379,379,379,379,379,481,465,569,303,476,483,477,537,441
360,360,360,360,360,360,360,360,360,465,496,564,19,484,470,486,543,435
377,377,377,377,377,377,377,377,377,463,483,564,270,469,487,617,542,441
371,371,371,371,371,371,371,371,371,459,468,562,0,487,467,755,536,433
364,364,364,364,364,364,364,364,364,484,467,562,254,481,473,716,527,425
359,359,359,359,359,359,359,359,359,480,463,564,7,497,468,529,497,432
368,368,368,368,368,368,368,368,368,454,460,564,295,488,476,499,487,444
372,372,372,372,372,372,372,372,372,478,463,567,16,503,467,487,451,433
370,370,370,370,370,370,370,370,370,475,462,576,300,488,497,465,436,433
367,367,367,367,367,367,367,367,367,467,467,596,7,498,476,467,423,441
376,376,376,376,376,376,376,376,376,457,448,570,300,492,540,455,424,431
358,358,358,358,358,358,358,358,358,465,455,535,19,505,646,476,406,441
359,359,359,359,359,359,359,359,359,487,470,548,295,490,632,475,403,428
467,467,467,467,467,467,467,467,467,478,545,561,4,506,479,464,415,432
598,598,598,598,598,598,598,598,598,471,723,562,287,504,470,494,403,431
559,559,559,559,559,559,559,559,559,448,807,561,9,535,472,477,414,440
338,338,338,338,338,338,338,338,338,467,620,568,300,513,465,470,402,432
312,312,312,312,312,312,312,312,312,473,483,567,30,537,454,496,414,440
335,335,335,335,335,335,335,335,335,480,448,564,345,528,475,489,414,432
359,359,359,359,359,359,359,359,359,472,465,565,47,561,451,492,417,440
368,368,368,368,368,368,368,368,368,481,455,570,339,552,463,511,431,448
358,358,358,358,358,358,358,358,358,492,460,569,65,565,468,516,423,455
372,372,372,372,372,372,372,372,372,495,473,569,351,554,476,519,417,446
358,358,358,358,358,358,358,358,358,486,463,578,59,544,463,534,428,443
370,370,370,370,370,370,370,370,370,487,475,569,355,516,474,536,430,420
359,359,359,359,359,359,359,359,359,475,483,576,61,511,459,539,419,448
361,361,361,361,361,361,361,361,361,457,472,576,352,472,488,547,422,432
361,361,361,361,361,361,361,361,361,483,481,576,75,482,483,531,436,431
359,359,359,359,359,359,359,359,359,462,481,580,377,457,494,518,430,430
356,356,356,356,356,356,356,356,356,464,480,580,102,466,491,512,429,440
368,368,368,368,368,368,368,368,368,455,489,580,391,456,499,499,428,460
376,376,376,376,376,376,376,376,376,462,487,583,127,476,486,491,419,551
365,365,365,365,365,365,365,365,365,521,496,581,387,468,499,478,428,588
379,379,379,379,379,379,379,379,379,633,504,581,108,464,491,483,431,508
382,382,382,382,382,382,382,382,382,556,515,580,381,465,529,504,419,432
384,384,384,384,384,384,384,384,384,423,510,580,102,464,502,487,425,448
391,391,391,391,391,391,391,391,391,448,512,576,399,455,523,483,431,435
396,396,396,396,396,396,396,396,396,476,524,573,105,461,515,481,428,435
399,399,399,399,399,399,399,399,399,460,524,573,372,456,507,487,420,427
391,391,391,391,391,391,391,391,391,452,502,575,60,473,476,483,443,439
380,380,380,380,380,380,380,380,380,483,487,573,365,456,449,459,429,440
364,364,364,364,364,364,364,364,364,468,487,569,65,464,432,463,440,432
345,345,345,345,345,345,345,345,345,468,480,569,393,424,420,463,463,435
329,329,329,329,329,329,329,329,329,449,460,573,153,402,413,464,463,446
312,312,312,312,312,312,312,312,312,476,447,569,499,399,415,481,455,438
312,312,312,312,312,312,312,312,312,464,441,569,136,424,400,463,457,457
302,302,302,302,302,302,302,302,302,472,444,575,239,416,409,462,440,454
291,291,291,291,291,291,291,291,291,478,440,578,0,441,407,465,432,462
297,297,297,297,297,297,297,297,297,472,435,569,316,434,435,440,428,463
299,299,299,299,299,299,299,299,299,483,438,570,48,445,423,443,438,481
305,305,305,305,305,305,305,305,305,492,432,572,363,439,450,428,439,487
295,295,295,295,295,295,295,295,295,492,441,572,69,460,460,433,432,495
316,316,316,316,316,316,316,316,316,519,448,569,355,460,463,435,435,489
327,327,327,327,327,327,327,327,327,521,443,567,79,473,462,423,432,497
327,327,327,327,327,327,327,327,327,524,448,572,369,463,471,432,480,504
350,350,350,350,350,350,350,350,350,524,456,569,67,487,476,440,641,504
358,358,358,358,358,358,358,358,358,543,460,568,348,473,492,449,799,489
365,365,365,365,365,365,365,365,365,560,457,569,79,496,480,448,632,487
379,379,379,379,379,379,379,379,379,564,451,569,390,488,491,450,413,472
382,382,382,382,382,382,382,382,382,551,476,569,97,497,479,433,436,468
387,387,387,387,387,387,387,387,387,534,473,569,392,488,492,455,451,444
397,397,397,397,397,397,397,397,397,534,455,569,110,497,481,432,435,438
419,419,419,419,419,419,419,419,419,516,480,570,414,479,499,448,454,428
423,423,423,423,423,423,423,423,423,495,487,570,135,479,478,456,456,423
429,429,429,429,429,429,429,429,429,463,467,569,414,450,491,460,455,425
422,422,422,422,422,422,422,422,422,448,481,570,163,472,491,468,467,444
419,419,419,419,419,419,419,419,419,462,476,565,460,453,486,470,470,423
429,429,429,429,429,429,429,429,429,452,467,562,198,467,480,449,472,431
428,428,428,428,428,428,428,428,428,465,470,564,492,472,491,460,472,435
423,423,423,423,423,423,423,423,423,451,487,562,195,474,474,444,487,433
415,415,415,415,415,415,415,415,415,440,470,562,472,464,486,445,487,435
407,407,407,407,407,407,407,407,407,454,444,570,183,477,478,446,496,436
395,395,395,395,395,395,395,395,395,455,467,584,455,468,483,440,510,438
393,393,393,393,393,393,393,393,393,441,472,599,143,481,463,440,519,435
385,385,385,385,385,385,385,385,385,441,440,602,415,505,459,438,527,441
374,374,374,374,374,374,374,374,374,451,451,556,131,639,448,432,537,444
372,372,372,372,372,372,372,372,372,455,464,543,439,634,463,556,529,440
369,369,369,369,369,369,369,369,369,478,448,561,137,445,462,712,536,427
374,374,374,374,374,374,374,374,374,455,451,563,415,441,464,692,511,435
371,371,371,371,371,371,371,371,371,466,455,567,127,505,463,513,508,447
376,376,376,376,376,376,376,376,376,481,449,570,430,488,460,463,487,440
380,380,380,380,380,380,380,380,380,476,449,573,98,488,467,451,472,441
384,384,384,384,384,384,384,384,384,500,460,573,408,477,465,440,465,444
385,385,385,385,385,385,385,385,385,616,444,572,140,490,454,428,432,451
393,393,393,393,393,393,393,393,393,697,440,573,448,488,482,435,433,447
391,391,391,391,391,391,391,391,391,463,463,573,191,494,461,456,412,455
368,368,368,368,368,368,368,368,368,438,463,570,488,486,480,440,410,440
370,370,370,370,370,370,370,370,370,477,460,573,198,511,473,428,398,444
380,380,380,380,380,380,380,380,380,470,471,576,479,485,493,454,408,432
370,370,370,370,370,370,370,370,370,475,472,573,167,492,496,451,423,438
380,380,380,380,380,380,380,380,380,472,463,576,455,505,491,452,415,430
379,379,379,379,379,379,379,379,379,463,440,580,158,511,496,448,428,449
384,384,384,384,384,384,384,384,384,457,459,580,451,509,487,462,415,435
380,380,380,380,380,380,380,380,380,460,441,580,176,517,470,467,427,455
351,351,351,351,351,351,351,351,351,470,455,584,487,531,496,467,435,556
411,411,411,411,411,411,411,411,411,472,457,588,184,540,481,470,433,621
568,568,568,568,568,568,568,568,568,472,451,591,476,540,476,475,423,536
655,655,655,655,655,655,655,655,655,481,455,588,167,557,465,495,427,462
460,460,460,460,460,460,460,460,460,480,448,585,463,548,471,504,444,455
313,313,313,313,313,313,313,313,313,479,467,583,158,567,462,519,452,444
335,335,335,335,335,335,335,335,335,481,566,576,455,578,473,492,436,448
358,358,358,358,358,358,358,358,358,508,753,575,174,580,460,473,448,449
371,371,371,371,371,371,371,371,371,504,799,573,475,551,467,475,462,437
367,367,367,367,367,367,367,367,367,504,575,573,174,548,497,425,440,449
367,367,367,367,367,367,367,367,367,508,476,573,478,521,641,448,433,460
366,366,366,366,366,366,366,366,366,527,445,573,177,505,623,431,443,460
364,364,364,364,364,364,364,364,364,537,441,570,457,492,480,443,453,440
380,380,380,380,380,380,380,380,380,556,451,573,155,494,454,439,444,475
374,374,374,374,374,374,374,374,374,550,448,570,444,475,472,448,450,472
364,364,364,364,364,364,364,364,364,536,444,572,159,479,455,438,454,473
376,376,376,376,376,376,376,376,376,523,448,575,463,461,463,440,455,465
379,379,379,379,379,379,379,379,379,480,447,572,182,476,460,428,439,473
388,388,388,388,388,388,388,388,388,470,430,573,468,474,463,444,454,484
376,376,376,376,376,376,376,376,376,447,472,576,187,469,448,435,442,481
382,382,382,382,382,382,382,382,382,483,467,577,500,453,463,445,448,481
391,391,391,391,391,391,391,391,391,459,463,576,188,463,448,451,460,480
408,408,408,408,408,408,408,408,408,440,472,577,471,449,463,465,465,462
401,401,401,401,401,401,401,401,401,438,475,573,192,447,459,455,472,463
408,408,408,408,408,408,408,408,408,433,480,576,482,473,460,463,492,476
423,423,423,423,423,423,423,423,423,464,499,578,207,490,459,451,492,473
419,419,419,419,419,419,419,419,419,436,497,576,507,473,467,431,489,478
408,408,408,408,408,408,408,408,408,436,491,575,217,484,476,451,470,473
395,395,395,395,395,395,395,395,395,468,531,579,511,477,468,463,460,451
380,380,380,380,380,380,380,380,380,465,518,577,228,482,478,446,438,449
364,364,364,364,364,364,364,364,364,460,511,578,499,482,511,460,462,441
339,339,339,339,339,339,339,339,339,451,515,580,184,488,487,457,448,425
321,321,321,321,321,321,321,321,321,484,496,578,483,477,515,443,465,432
313,313,313,313,313,313,313,313,313,452,496,576,203,481,507,434,461,454
295,295,295,295,295,295,295,295,295,444,476,584,479,481,527,454,449,430
280,280,280,280,280,280,280,280,280,455,465,591,176,497,523,434,465,444
281,281,281,281,281,281,281,281,281,468,455,580,489,481,513,454,524,432
283,283,283,283,283,283,283,283,283,448,435,584,252,505,504,443,681,436
292,292,292,292,292,292,292,292,292,455,435,576,612,498,496,463,807,444
289,289,289,289,289,289,289,289,289,463,440,578,190,506,447,452,588,452
307,307,307,307,307,307,307,307,307,471,443,579,337,527,432,444,439,440
311,311,311,311,311,311,311,311,311,462,419,578,92,525,423,448,477,444
326,326,326,326,326,326,326,326,326,455,437,580,443,513,420,455,483,449
339,339,339,339,339,339,339,339,339,455,432,584,168,528,389,451,465,444
348,348,348,348,348,348,348,348,348,460,432,604,481,493,423,454,468,445
359,359,359,359,359,359,359,359,359,471,444,617,198,495,408,464,483,452
366,366,366,366,366,366,366,366,366,461,440,584,519,485,406,475,489,440
376,376,376,376,376,376,376,376,376,440,438,552,219,487,428,463,486,451
396,396,396,396,396,396,396,396,396,460,448,569,511,481,428,448,494,449
396,396,396,396,396,396,396,396,396,478,456,575,199,484,433,440,496,455
391,391,391,391,391,391,391,391,391,465,463,584,499,473,464,443,513,443
398,398,398,398,398,398,398,398,398,444,468,580,209,484,446,435,504,452
403,403,403,403,403,403,403,403,403,475,462,580,510,469,460,451,531,457
401,401,401,401,401,401,401,401,401,470,468,578,211,484,462,435,537,451
403,403,403,403,403,403,403,403,403,461,483,576,499,484,467,448,542,455
399,399,399,399,399,399,399,399,399,467,481,583,236,564,459,421,547,465
391,391,391,391,391,391,391,391,391,478,475,576,540,679,483,424,560,467
388,388,388,388,388,388,388,388,388,451,480,583,283,620,455,569,561,457
396,396,396,396,396,396,396,396,396,444,487,580,595,423,483,711,560,436
380,380,380,380,380,380,380,380,380,444,492,580,319,469,465,665,545,448
368,368,368,368,368,368,368,368,368,486,479,584,631,484,480,483,547,454
364,364,364,364,364,364,364,364,364,480,480,580,339,487,487,455,540,451
356,356,356,356,356,356,356,356,356,465,481,583,611,479,486,439,519,435
364,364,364,364,364,364,364,364,364,457,472,584,310,477,472,419,490,444
358,358,358,358,358,358,358,358,358,448,481,584,588,477,477,438,463,455
359,359,359,359,359,359,359,359,359,472,491,588,279,495,476,423,445,560
356,356,356,356,356,356,356,356,356,476,483,591,551,481,476,408,443,636
352,352,352,352,352,352,352,352,352,476,476,591,233,500,478,417,425,569
359,359,359,359,359,359,359,359,359,473,480,589,524,492,491,413,422,468
371,371,371,371,371,371,371,371,371,467,489,592,217,493,453,419,429,455
387,387,387,387,387,387,387,387,387,457,488,592,515,493,481,428,417,448
376,376,376,376,376,376,376,376,376,463,487,584,233,504,455,422,432,444
387,387,387,387,387,387,387,387,387,475,487,581,537,516,472,428,427,443
382,382,382,382,382,382,382,382,382,473,472,577,212,514,463,422,425,455
379,379,379,379,379,379,379,379,379,500,492,578,500,519,466,427,448,445
369,369,369,369,369,369,369,369,369,471,496,573,207,536,446,440,435,448
376,376,376,376,376,376,376,376,376,472,496,570,484,522,480,440,440,460
376,376,376,376,376,376,376,376,376,470,501,576,199,548,463,460,440,436
382,382,382,382,382,382,382,382,382,479,499,575,502,541,472,460,440,446
384,384,384,384,384,384,384,384,384,495,496,575,199,557,475,462,448,455
387,387,387,387,387,387,387,387,387,516,504,574,508,557,483,476,447,448
369,369,369,369,369,369,369,369,369,512,492,576,211,569,465,483,451,476
374,374,374,374,374,374,374,374,374,491,478,574,490,554,472,472,443,476
480,480,480,480,480,480,480,480,480,504,486,576,211,549,476,456,451,476
632,632,632,632,632,632,632,632,632,476,484,572,507,525,487,444,457,476
619,619,619,619,619,619,619,619,619,467,480,576,243,519,481,432,452,487
371,371,371,371,371,371,371,371,371,465,480,578,543,497,504,420,455,504
337,337,337,337,337,337,337,337,337,483,471,576,259,484,504,432,447,495
368,368,368,368,368,368,368,368,368,504,469,575,545,496,486,437,455,491
384,384,384,384,384,384,384,384,384,492,470,578,248,490,492,415,455,489
384,384,384,384,384,384,384,384,384,497,515,576,537,464,496,423,448,481
382,382,382,382,382,382,382,382,382,641,632,579,248,474,463,427,459,483
387,387,387,387,387,387,387,387,387,643,798,580,541,482,479,438,444,463
388,388,388,388,388,388,388,388,388,467,716,578,247,481,464,417,455,471
390,390,390,390,390,390,390,390,390,503,516,580,532,468,475,425,444,449
385,385,385,385,385,385,385,385,385,448,463,578,232,468,463,422,457,425
392,392,392,392,392,392,392,392,392,478,452,576,531,468,470,425,455,429
400,400,400,400,400,400,400,400,400,463,466,578,225,482,451,415,455,435
396,396,396,396,396,396,396,396,396,451,459,580,515,471,470,442,487,411
408,408,408,408,408,408,408,408,408,480,446,583,213,464,472,423,484,423
411,411,411,411,411,411,411,411,411,480,465,580,518,477,481,441,478,430
415,415,415,415,415,415,415,415,415,460,463,576,238,479,486,417,449,438
412,412,412,412,412,412,412,412,412,472,463,578,534,477,588,425,441,425
415,415,415,415,415,415,415,415,415,467,478,581,249,493,686,428,455,424
428,428,428,428,428,428,428,428,428,455,447,579,547,458,536,438,443,428
440,440,440,440,440,440,440,440,440,473,472,583,224,473,460,420,455,441
448,448,448,448,448,448,448,448,448,476,481,583,508,462,476,423,446,432
451,451,451,451,451,451,451,451,451,480,464,584,191,487,460,422,451,436
448,448,448,448,448,448,448,448,448,487,483,580,476,468,479,434,454,434
448,448,448,448,448,448,448,448,448,487,486,578,123,487,456,432,467,441
436,436,436,436,436,436,436,436,436,489,473,576,444,473,465,411,588,431
408,408,408,408,408,408,408,408,408,487,487,583,135,466,473,430,780,440
395,395,395,395,395,395,395,395,395,496,500,583,455,467,480,433,792,432
377,377,377,377,377,377,377,377,377,507,492,580,179,474,467,432,519,447
366,366,366,366,366,366,366,366,366,516,487,591,486,473,467,425,430,443
352,352,352,352,352,352,352,352,352,534,483,609,199,493,465,419,481,448
345,345,345,345,345,345,345,345,345,550,487,615,521,484,472,426,476,457
345,345,345,345,345,345,345,345,345,556,479,573,234,497,478,434,473,457
336,336,336,336,336,336,336,336,336,537,471,551,535,488,476,415,475,448
342,342,342,342,342,342,342,342,342,502,443,572,252,497,496,439,472,440
349,349,349,349,349,349,349,349,349,512,429,576,548,488,500,443,495,432
347,347,347,347,347,347,347,347,347,511,420,578,240,505,487,432,487,440
364,364,364,364,364,364,364,364,364,489,432,578,534,464,508,440,480,423
369,369,369,369,369,369,369,369,369,470,412,580,224,477,513,438,505,433
379,379,379,379,379,379,379,379,379,464,408,580,523,456,524,427,520,432
391,391,391,391,391,391,391,391,391,468,396,580,234,455,518,406,529,441
408,408,408,408,408,408,408,408,408,446,403,576,535,484,529,431,524,449
419,419,419,419,419,419,419,419,419,451,407,580,238,468,528,428,553,540
422,422,422,422,422,422,422,422,422,468,395,580,583,456,543,420,561,598
439,439,439,439,439,439,439,439,439,472,409,581,353,481,540,420,560,550
443,443,443,443,443,443,443,443,443,472,417,581,608,468,519,423,568,455
444,444,444,444,444,444,444,444,444,475,409,585,124,454,499,412,575,463
444,444,444,444,444,444,444,444,444,467,412,583,435,489,472,390,579,441
455,455,455,455,455,455,455,455,455,467,419,584,160,592,440,481,550,449
462,462,462,462,462,462,462,462,462,476,428,589,521,653,444,651,567,451
459,459,459,459,459,459,459,459,459,454,429,589,243,471,425,700,562,448
459,459,459,459,459,459,459,459,459,483,434,585,545,418,420,524,527,448
450,450,450,450,450,450,450,450,450,487,432,595,279,464,414,415,512,441
457,457,457,457,457,457,457,457,457,463,434,592,581,457,423,423,504,460
444,444,444,444,444,444,444,444,444,463,430,589,279,465,416,401,483,460
440,440,440,440,440,440,440,440,440,473,444,592,590,452,436,399,444,465
435,435,435,435,435,435,435,435,435,467,435,594,295,467,432,396,440,460
440,440,440,440,440,440,440,440,440,470,443,589,583,468,449,403,460,484
432,432,432,432,432,432,432,432,432,480,425,589,281,468,440,403,455,476
425,425,425,425,425,425,425,425,425,487,446,580,568,447,459,395,463,480
423,423,423,423,423,423,423,423,423,480,428,584,281,452,444,408,455,491
432,432,432,432,432,432,432,432,432,478,430,576,598,452,481,412,448,484
425,425,425,425,425,425,425,425,425,479,435,580,304,461,467,413,447,487
440,440,440,440,440,440,440,440,440,468,428,578,615,468,476,409,463,508
428,428,428,428,428,428,428,428,428,481,432,576,335,468,476,415,455,504
432,432,432,432,432,432,432,432,432,467,435,575,656,473,483,422,463,499
443,443,443,443,443,443,443,443,443,449,433,578,363,485,471,431,475,523
422,422,422,422,422,422,422,422,422,457,427,580,675,484,483,438,480,510
419,419,419,419,419,419,419,419,419,468,432,580,371,509,481,438,448,479
422,422,422,422,422,422,422,422,422,479,449,576,646,520,481,463,448,476
423,423,423,423,423,423,423,423,423,482,444,576,352,525,467,452,463,468
429,429,429,429,429,429,429,429,429,462,440,576,611,529,492,478,465,440
435,435,435,435,435,435,435,435,435,467,454,579,284,552,460,465,462,455
433,433,433,433,433,433,433,433,433,480,448,577,569,548,484,462,468,448
427,427,427,427,427,427,427,427,427,480,446,576,236,562,467,446,472,436
417,417,417,417,417,417,417,417,417,483,464,580,534,546,455,432,472,435
518,518,518,518,518,518,518,518,518,480,457,583,247,543,448,419,463,441
655,655,655,655,655,655,655,655,655,472,451,583,550,509,461,406,473,431
675,675,675,675,675,675,675,675,675,503,460,580,252,506,438,390,476,438
450,450,450,450,450,450,450,450,450,496,481,580,518,497,451,412,487,440
403,403,403,403,403,403,403,403,403,464,484,580,231,484,447,400,476,432
423,423,423,423,423,423,423,423,423,433,463,580,530,481,448,398,500,451
440,440,440,440,440,440,440,440,440,476,459,578,222,493,439,398,528,433
449,449,449,449,449,449,449,449,449,448,461,583,524,487,463,415,504,460
461,461,461,461,461,461,461,461,461,455,468,581,225,485,454,401,494,441
449,449,449,449,449,449,449,449,449,446,466,583,540,495,484,393,487,449
456,456,456,456,456,456,456,456,456,483,478,580,231,488,467,406,460,449
465,465,465,465,465,465,465,465,465,575,478,580,525,474,467,409,479,452
460,460,460,460,460,460,460,460,460,652,467,584,215,488,455,401,467,454
452,452,452,452,452,452,452,452,452,456,472,583,545,495,455,407,455,443
452,452,452,452,452,452,452,452,452,452,504,584,223,488,441,411,460,455
455,455,455,455,455,455,455,455,455,465,625,578,515,492,460,408,455,451
455,455,455,455,455,455,455,455,455,448,789,580,225,493,443,412,448,444
455,455,455,455,455,455,455,455,455,472,760,584,515,497,456,401,457,463
462,462,462,462,462,462,462,462,462,454,572,589,177,497,451,403,599,467
468,468,468,468,468,468,468,468,468,449,478,588,471,482,483,409,862,454
476,476,476,476,476,476,476,476,476,454,472,581,161,481,455,393,799,467
483,483,483,483,483,483,483,483,483,475,472,580,476,482,463,401,455,464
486,486,486,486,486,486,486,486,486,480,468,580,174,495,457,406,413,473
491,491,491,491,491,491,491,491,491,476,480,580,510,489,477,387,473,463
496,496,496,496,496,496,496,496,496,483,480,580,199,488,547,399,453,462
492,492,492,492,492,492,492,492,492,487,481,584,515,478,653,415,444,455
487,487,487,487,487,487,487,487,487,467,481,592,204,484,497,396,464,463
476,476,476,476,476,476,476,476,476,479,485,611,524,481,435,409,496,455
455,455,455,455,455,455,455,455,455,472,487,620,220,473,448,397,491,461
444,444,444,444,444,444,444,444,444,518,496,578,543,474,451,399,500,459
415,415,415,415,415,415,415,415,415,518,495,549,228,495,435,401,504,463
412,412,412,412,412,412,412,412,412,519,511,570,536,487,452,407,521,462
391,391,391,391,391,391,391,391,391,534,508,577,230,500,435,391,519,536
392,392,392,392,392,392,392,392,392,547,526,582,545,498,443,396,540,600
387,387,387,387,387,387,387,387,387,527,520,580,240,517,452,406,560,598
376,376,376,376,376,376,376,376,376,520,519,580,555,505,455,406,559,518
380,380,380,380,380,380,380,380,380,575,534,580,250,516,451,412,551,469
396,396,396,396,396,396,396,396,396,563,545,577,559,513,457,401,569,476
387,387,387,387,387,387,387,387,387,551,535,581,242,503,457,412,574,458
397,397,397,397,397,397,397,397,397,542,540,578,511,487,479,415,569,460
414,414,414,414,414,414,414,414,414,533,553,585,227,497,457,403,575,463
415,415,415,415,415,415,415,415,415,496,537,583,518,493,473,398,574,467
430,430,430,430,430,430,430,430,430,472,527,580,199,489,463,393,550,467
441,441,441,441,441,441,441,441,441,463,515,580,519,482,476,396,536,463
446,446,446,446,446,446,446,446,446,461,489,586,215,490,467,409,499,472
460,460,460,460,460,460,460,460,460,467,486,584,519,482,480,393,492,448
467,467,467,467,467,467,467,467,467,451,487,589,219,493,486,393,440,469
471,471,471,471,471,471,471,471,471,455,469,591,555,473,510,367,412,492
475,475,475,475,475,475,475,475,475,471,468,596,275,496,497,376,419,472
480,480,480,480,480,480,480,480,480,463,480,592,575,568,519,498,387,495
492,492,492,492,492,492,492,492,492,451,465,596,262,700,497,659,371,490
489,489,489,489,489,489,489,489,489,468,470,596,556,584,524,653,388,492
482,482,482,482,482,482,482,482,482,438,483,596,259,425,497,472,371,511
484,484,484,484,484,484,484,484,484,463,476,594,543,487,464,409,352,496
483,483,483,483,483,483,483,483,483,473,471,594,263,514,423,404,368,516
476,476,476,476,476,476,476,476,476,451,491,591,575,492,431,397,377,515
473,473,473,473,473,473,473,473,473,472,499,585,286,505,408,391,384,512
472,472,472,472,472,472,472,472,472,476,482,579,584,513,408,385,389,499
463,463,463,463,463,463,463,463,463,473,510,583,295,500,399,399,393,504
455,455,455,455,455,455,455,455,455,467,508,580,646,506,411,390,398,491
451,451,451,451,451,451,451,451,451,467,510,580,396,505,391,401,415,472
448,448,448,448,448,448,448,448,448,463,493,583,743,516,406,396,433,459
448,448,448,448,448,448,448,448,448,440,524,581,255,520,407,398,435,467
435,435,435,435,435,435,435,435,435,468,526,580,466,520,423,401,443,451
443,443,443,443,443,443,443,443,443,496,515,578,224,533,420,408,463,459
440,440,440,440,440,440,440,440,440,503,511,580,560,538,443,419,470,427
452,452,452,452,452,452,452,452,452,480,519,580,299,530,436,415,469,447
465,465,465,465,465,465,465,465,465,452,524,577,609,546,448,435,486,438
447,447,447,447,447,447,447,447,447,441,511,583,313,541,450,429,487,448
460,460,460,460,460,460,460,460,460,451,513,580,620,544,463,448,478,440
449,449,449,449,449,449,449,449,449,449,502,580,327,557,451,455,503,440
444,444,444,444,444,444,444,444,444,476,515,583,627,565,471,472,505,462
440,440,440,440,440,440,440,440,440,483,518,576,321,576,452,468,488,452
448,448,448,448,448,448,448,448,448,464,496,580,607,584,470,476,480,440
444,444,444,444,444,444,444,444,444,483,505,584,332,594,470,465,451,449
448,448,448,448,448,448,448,448,448,463,512,580,627,589,472,448,440,452
451,451,451,451,451,451,451,451,451,448,489,580,332,589,461,423,438,448
448,448,448,448,448,448,448,448,448,476,499,583,643,565,455,423,444,459
421,421,421,421,421,421,421,421,421,473,512,578,358,540,449,409,451,460
432,432,432,432,432,432,432,432,432,472,500,584,647,513,451,423,459,443
560,560,560,560,560,560,560,560,560,496,499,584,344,513,435,423,446,470
704,704,704,704,704,704,704,704,704,462,492,584,636,493,452,435,448,433
664,664,664,664,664,664,664,664,664,473,504,585,371,498,441,415,547,455
419,419,419,419,419,419,419,419,419,480,491,584,675,493,448,419,769,455
393,393,393,393,393,393,393,393,393,489,508,586,380,496,445,431,792,448
425,425,425,425,425,425,425,425,425,483,505,584,668,488,455,425,496,449
440,440,440,440,440,440,440,440,440,459,507,586,364,495,436,423,423,459
428,428,428,428,428,428,428,428,428,468,493,586,624,505,451,423,496,472
440,440,440,440,440,440,440,440,440,460,512,588,312,497,440,440,491,465
440,440,440,440,440,440,440,440,440,464,491,583,583,497,457,440,472,464
451,451,451,451,451,451,451,451,451,455,487,585,262,501,455,432,483,497
448,448,448,448,448,448,448,448,448,455,496,584,537,503,472,428,480,476
441,441,441,441,441,441,441,441,441,507,484,584,227,495,444,440,483,476
441,441,441,441,441,441,441,441,441,652,486,594,518,495,463,438,487,477
455,455,455,455,455,455,455,455,455,630,479,615,235,490,446,439,498,459
448,448,448,448,448,448,448,448,448,440,496,613,521,497,440,435,494,461
444,444,444,444,444,444,444,444,444,462,481,573,216,494,435,444,512,471
451,451,451,451,451,451,451,451,451,454,477,554,519,473,435,444,509,478
457,457,457,457,457,457,457,457,457,472,643,575,220,490,432,451,518,467
455,455,455,455,455,455,455,455,455,451,812,576,519,488,440,435,524,480
455,455,455,455,455,455,455,455,455,460,783,581,214,493,414,452,525,540
472,472,472,472,472,472,472,472,472,477,585,584,524,484,440,436,541,632
473,473,473,473,473,473,473,473,473,463,489,588,224,488,428,448,545,595
480,480,480,480,480,480,480,480,480,472,487,583,526,479,440,447,551,496
483,483,483,483,483,483,483,483,483,457,476,586,211,484,440,440,542,481
469,469,469,469,469,469,469,469,469,467,483,585,515,497,497,445,553,468
473,473,473,473,473,473,473,473,473,451,484,583,199,506,604,460,529,472
451,451,451,451,451,451,451,451,451,487,472,583,510,507,598,454,512,467
435,435,435,435,435,435,435,435,435,496,476,586,224,512,448,449,495,476
417,417,417,417,417,417,417,417,417,476,507,589,527,511,444,438,465,455
396,396,396,396,396,396,396,396,396,488,494,589,220,488,435,441,449,476
390,390,390,390,390,390,390,390,390,474,492,589,531,481,438,423,440,467
368,368,368,368,368,368,368,368,368,487,495,591,220,487,441,440,419,460
371,371,371,371,371,371,371,371,371,527,504,588,526,479,446,448,404,483
374,374,374,374,374,374,374,374,374,526,499,592,226,476,432,449,417,483
374,374,374,374,374,374,374,374,374,500,518,596,540,482,444,454,409,476
364,364,364,364,364,364,364,364,364,536,516,596,214,487,444,451,403,478
376,376,376,376,376,376,376,376,376,542,511,599,524,481,448,444,428,500
384,384,384,384,384,384,384,384,384,519,508,597,216,484,447,438,415,495
390,390,390,390,390,390,390,390,390,559,553,596,527,468,456,435,423,495
399,399,399,399,399,399,399,399,399,536,540,596,227,501,463,432,433,513
408,408,408,408,408,408,408,408,408,502,534,589,505,561,463,431,428,512
417,417,417,417,417,417,417,417,417,515,543,584,216,689,464,422,448,518
428,428,428,428,428,428,428,428,428,495,541,580,519,548,476,429,448,524
440,440,440,440,440,440,440,440,440,463,519,584,209,423,473,433,451,524
448,448,448,448,448,448,448,448,448,473,505,578,515,465,487,399,455,511
453,453,453,453,453,453,453,453,453,456,505,580,219,503,481,419,428,519
451,451,451,451,451,451,451,451,451,432,476,574,528,477,504,563,447,499
469,469,469,469,469,469,469,469,469,447,475,576,235,481,502,719,455,492
472,472,472,472,472,472,472,472,472,467,476,572,540,488,508,620,451,465
475,475,475,475,475,475,475,475,475,472,462,567,238,497,504,460,447,483
468,468,468,468,468,468,468,468,468,460,452,569,540,495,524,432,467,454
473,473,473,473,473,473,473,473,473,427,451,569,236,505,504,415,470,460
478,478,478,478,478,478,478,478,478,439,460,570,519,500,510,412,479,462
467,467,467,467,467,467,467,467,467,444,444,570,214,511,463,408,494,462
463,463,463,463,463,463,463,463,463,465,448,573,511,505,454,403,448,455
467,467,467,467,467,467,467,467,467,455,454,569,195,508,419,403,443,465
460,460,460,460,460,460,460,460,460,465,455,573,502,508,419,412,440,470
454,454,454,454,454,454,454,454,454,455,455,573,202,522,401,420,443,463
455,455,455,455,455,455,455,455,455,460,471,572,507,514,401,408,432,470
448,448,448,448,448,448,448,448,448,491,466,576,241,544,397,412,423,459
448,448,448,448,448,448,448,448,448,451,476,569,612,544,412,401,447,467
439,439,439,439,439,439,439,439,439,448,478,569,332,548,415,419,435,465
435,435,435,435,435,435,435,435,435,470,487,569,455,564,425,416,439,455
454,454,454,454,454,454,454,454,454,456,483,575,83,570,420,419,513,475
454,454,454,454,454,454,454,454,454,449,487,573,449,569,443,438,670,463
455,455,455,455,455,455,455,455,455,459,493,578,167,581,444,436,755,477
472,472,472,472,472,472,472,472,472,491,497,576,528,576,454,430,536,465
480,480,480,480,480,480,480,480,480,465,483,575,249,565,448,441,407,472
487,487,487,487,487,487,487,487,487,473,492,573,536,551,483,457,460,463
483,483,483,483,483,483,483,483,483,465,487,580,236,524,463,451,460,467
483,483,483,483,483,483,483,483,483,454,487,576,527,516,483,455,448,478
483,483,483,483,483,483,483,483,483,463,494,580,246,504,481,428,448,462
487,487,487,487,487,487,487,487,487,476,496,576,537,488,487,428,460,472
480,480,480,480,480,480,480,480,480,470,487,577,248,488,478,412,459,475
480,480,480,480,480,480,480,480,480,465,488,575,532,488,481,419,460,452
484,484,484,484,484,484,484,484,484,476,483,575,236,488,467,393,476,470
487,487,487,487,487,487,487,487,487,476,470,575,527,467,475,403,495,467
483,483,483,483,483,483,483,483,483,456,473,584,241,490,476,387,512,463
464,464,464,464,464,464,464,464,464,472,480,597,561,489,480,388,503,455
481,481,481,481,481,481,481,481,481,472,478,615,255,479,463,398,496,463
612,612,612,612,612,612,612,612,612,471,472,596,572,471,472,391,519,473
770,770,770,770,770,770,770,770,770,483,465,554,310,483,475,388,537,470
718,718,718,718,718,718,718,718,718,499,478,564,571,482,477,393,543,463
472,472,472,472,472,472,472,472,472,481,481,581,306,481,467,413,551,460
471,471,471,471,471,471,471,471,471,499,472,578,600,481,479,397,558,451
494,494,494,494,494,494,494,494,494,505,478,583,305,485,472,414,543,467
528,528,528,528,528,528,528,528,528,470,480,584,563,481,476,398,536,454
524,524,524,524,524,524,524,524,524,480,479,589,267,482,467,412,559,454
524,524,524,524,524,524,524,524,524,477,478,588,528,479,472,408,536,460
534,534,534,534,534,534,534,534,534,463,483,589,216,482,463,404,496,468
531,531,531,531,531,531,531,531,531,443,494,589,500,468,470,408,492,519
536,536,536,536,536,536,536,536,536,449,479,589,185,473,472,413,467,615
551,551,551,551,551,551,551,551,551,460,475,594,487,490,494,408,458,587
547,547,547,547,547,547,547,547,547,556,472,596,176,484,486,400,448,483
553,553,553,553,553,553,553,553,553,679,467,592,467,488,499,403,441,465
563,563,563,563,563,563,563,563,563,556,472,596,170,484,484,403,441,451
563,563,563,563,563,563,563,563,563,455,467,596,475,484,504,396,440,448
564,564,564,564,564,564,564,564,564,464,470,601,172,488,475,408,455,455
584,584,584,584,584,584,584,584,584,468,476,601,451,497,483,408,451,452
579,579,579,579,579,579,579,579,579,428,463,605,157,509,482,411,462,447
593,593,593,593,593,593,593,593,593,443,476,605,484,506,487,411,463,451
607,607,607,607,607,607,607,607,607,465,544,609,192,497,473,408,465,463
611,611,611,611,611,611,611,611,611,451,704,607,508,505,486,406,473,468
606,606,606,606,606,606,606,606,606,456,812,612,204,484,483,412,465,472
615,615,615,615,615,615,615,615,615,497,651,607,486,477,497,398,463,463
609,609,609,609,609,609,609,609,609,489,486,601,204,473,487,407,487,467
604,604,604,604,604,604,604,604,604,463,444,601,497,473,499,396,498,463
591,591,591,591,591,591,591,591,591,480,472,602,216,477,473,399,497,481
583,583,583,583,583,583,583,583,583,451,466,602,492,479,534,399,505,484
564,564,564,564,564,564,564,564,564,472,443,602,198,481,662,415,494,491
543,543,543,543,543,543,543,543,543,496,467,600,494,485,611,417,507,483
536,536,536,536,536,536,536,536,536,474,465,602,192,484,470,408,524,492
527,527,527,527,527,527,527,527,527,509,449,601,516,467,475,391,525,499
515,515,515,515,515,515,515,515,515,524,454,602,219,505,460,395,519,518
510,510,510,510,510,510,510,510,510,515,465,599,519,599,470,385,534,495
519,519,519,519,519,519,519,519,519,547,463,607,238,724,476,393,524,500
518,518,518,518,518,518,518,518,518,519,454,602,504,562,482,391,510,500
526,526,526,526,526,526,526,526,526,531,470,605,209,436,455,403,504,487
539,539,539,539,539,539,539,539,539,542,465,605,510,489,487,392,502,465
536,536,536,536,536,536,536,536,536,565,480,601,219,493,487,363,510,456
551,551,551,551,551,551,551,551,551,536,479,605,511,484,484,412,499,448
561,561,561,561,561,561,561,561,561,563,470,605,210,489,476,561,494,435
568,568,568,568,568,568,568,568,568,515,491,609,496,479,499,627,507,435
575,575,575,575,575,575,575,575,575,487,497,607,199,488,484,516,551,438
587,587,587,587,587,587,587,587,587,476,496,610,504,498,504,385,671,440
590,590,590,590,590,590,590,590,590,487,496,609,213,495,491,393,860,426
600,600,600,600,600,600,600,600,600,470,489,608,527,497,499,376,792,438
613,613,613,613,613,613,613,613,613,472,476,609,215,497,481,375,551,441
615,615,615,615,615,615,615,615,615,456,468,607,527,505,503,380,528,431
612,612,612,612,612,612,612,612,612,457,465,610,212,513,502,368,547,438
628,628,628,628,628,628,628,628,628,435,444,609,479,511,507,374,540,447
639,639,639,639,639,639,639,639,639,455,419,609,192,513,515,376,551,444
627,627,627,627,627,627,627,627,627,454,423,607,477,522,511,377,556,443
630,630,630,630,630,630,630,630,630,463,419,612,207,520,507,387,559,444
627,627,627,627,627,627,627,627,627,478,414,613,499,539,526,376,563,446
615,615,615,615,615,615,615,615,615,445,398,615,209,541,514,380,561,453
611,611,611,611,611,611,611,611,611,460,392,616,524,557,511,383,568,448
604,604,604,604,604,604,604,604,604,476,384,616,233,563,480,379,568,457
595,595,595,595,595,595,595,595,595,468,398,605,515,564,441,414,579,449
591,591,591,591,591,591,591,591,591,464,399,609,216,569,415,412,585,449
588,588,588,588,588,588,588,588,588,451,391,605,505,573,415,428,611,448
585,585,585,585,585,585,585,585,585,455,396,602,193,561,387,432,615,451
578,578,578,578,578,578,578,578,578,461,412,596,491,544,404,432,627,457
579,579,579,579,579,579,579,579,579,463,403,609,201,533,399,451,627,462
585,585,585,585,585,585,585,585,585,483,403,625,494,517,394,438,620,462
587,587,587,587,587,587,587,587,587,465,420,633,218,488,412,435,622,441
591,591,591,591,591,591,591,591,591,475,420,596,511,482,428,417,614,438
601,601,601,601,601,601,601,601,601,470,428,563,284,481,417,401,616,451
617,617,617,617,617,617,617,617,617,472,432,580,599,466,440,400,591,465
615,615,615,615,615,615,615,615,615,460,423,588,189,483,435,390,579,463
615,615,615,615,615,615,615,615,615,451,432,589,371,488,454,393,559,457
610,610,610,610,610,610,610,610,610,470,444,592,124,479,434,375,534,483
600,600,600,600,600,600,600,600,600,467,433,592,483,490,457,374,515,472
609,609,609,609,609,609,609,609,609,492,440,594,199,484,447,387,513,471
604,604,604,604,604,604,604,604,604,465,454,591,513,488,467,368,496,455
615,615,615,615,615,615,615,615,615,463,440,592,235,490,462,387,508,460
611,611,611,611,611,611,611,611,611,467,438,592,519,482,483,371,512,459
608,608,608,608,608,608,608,608,608,460,428,591,224,482,463,379,511,465
615,615,615,615,615,615,615,615,615,472,435,589,528,485,467,390,496,452
590,590,590,590,590,590,590,590,590,470,444,590,248,480,463,384,515,460
596,596,596,596,596,596,596,596,596,485,430,586,512,477,476,371,510,457
730,730,730,730,730,730,730,730,730,486,419,589,240,488,463,398,508,536
861,861,861,861,861,861,861,861,861,485,433,580,536,481,467,387,519,627
761,761,761,761,761,761,761,761,761,476,435,580,252,477,451,377,523,607
545,545,545,545,545,545,545,545,545,500,428,584,542,480,467,384,524,478
545,545,545,545,545,545,545,545,545,489,419,584,260,473,457,382,515,468
558,558,558,558,558,558,558,558,558,492,435,583,551,485,460,393,513,463
566,566,566,566,566,566,566,566,566,495,430,585,280,474,460,388,535,460
563,563,563,563,563,563,563,563,563,479,436,589,568,473,448,383,523,459
574,574,574,574,574,574,574,574,574,467,437,589,300,481,454,380,521,451
568,568,568,568,568,568,568,568,568,451,435,584,588,482,448,395,529,457
569,569,569,569,569,569,569,569,569,471,443,581,324,493,448,389,526,440
568,568,568,568,568,568,568,568,568,463,439,573,600,498,455,387,524,463
568,568,568,568,568,568,568,568,568,477,460,573,316,503,451,395,547,462
571,571,571,571,571,571,571,571,571,478,433,570,581,495,454,376,546,472
568,568,568,568,568,568,568,568,568,583,446,567,305,512,449,391,535,463
567,567,567,567,567,567,567,567,567,692,447,569,571,509,470,383,526,472
563,563,563,563,563,563,563,563,563,499,440,569,284,511,472,396,531,468
575,575,575,575,575,575,575,575,575,431,438,562,545,511,467,388,516,472
575,575,575,575,575,575,575,575,575,465,451,561,239,498,489,384,512,473
579,579,579,579,579,579,579,579,579,443,440,564,499,476,487,384,512,465
589,589,589,589,589,589,589,589,589,466,430,564,203,490,476,391,508,496
591,591,591,591,591,591,591,591,591,455,463,563,478,488,476,381,497,496
599,599,599,599,599,599,599,599,599,470,451,561,231,473,463,391,507,495
600,600,600,600,600,600,600,600,600,467,499,561,500,485,455,401,505,513
604,604,604,604,604,604,604,604,604,462,649,564,220,495,457,392,579,500
605,605,605,605,605,605,605,605,605,467,817,564,511,488,463,380,715,499
587,587,587,587,587,587,587,587,587,465,712,563,211,475,462,380,856,510
577,577,577,577,577,577,577,577,577,457,496,560,496,481,472,374,688,494
560,560,560,560,560,560,560,560,560,483,455,563,235,488,470,391,494,480
540,540,540,540,540,540,540,540,540,492,464,561,511,569,470,368,505,448
520,520,520,520,520,520,520,520,520,478,433,569,214,692,465,370,515,446
505,505,505,505,505,505,505,505,505,468,476,560,524,612,467,366,519,427
492,492,492,492,492,492,492,492,492,499,473,561,227,433,471,344,512,440
487,487,487,487,487,487,487,487,487,512,473,559,543,474,523,380,515,425
480,480,480,480,480,480,480,480,480,509,470,557,276,500,662,520,519,436
472,472,472,472,472,472,472,472,472,508,484,557,561,497,591,617,519,440
476,476,476,476,476,476,476,476,476,517,487,561,284,493,455,575,527,440
481,481,481,481,481,481,481,481,481,528,487,560,560,495,447,433,540,423
483,483,483,483,483,483,483,483,483,532,484,562,273,497,454,391,542,443
495,495,495,495,495,495,495,495,495,548,505,561,563,493,457,384,550,440
497,497,497,497,497,497,497,497,497,560,503,560,304,504,451,361,572,446
513,513,513,513,513,513,513,513,513,555,499,564,575,512,463,380,580,432
518,518,518,518,518,518,518,518,518,543,531,564,307,513,457,380,580,446
527,527,527,527,527,527,527,527,527,527,536,561,579,520,464,358,583,433
543,543,543,543,543,543,543,543,543,494,537,563,310,517,460,374,595,440
541,541,541,541,541,541,541,541,541,487,540,562,579,525,463,367,591,444
550,550,550,550,550,550,550,550,550,470,559,557,304,522,460,361,606,438
566,566,566,566,566,566,566,566,566,455,545,555,600,535,460,376,588,435
567,567,567,567,567,567,567,567,567,451,560,557,312,528,472,387,574,439
556,556,556,556,556,556,556,556,556,457,559,561,574,544,476,384,559,435
563,563,563,563,563,563,563,563,563,483,547,569,315,561,473,398,551,435
566,566,566,566,566,566,566,566,566,449,543,580,582,560,476,391,532,435
563,563,563,563,563,563,563,563,563,470,534,602,327,569,476,412,492,456
553,553,553,553,553,553,553,553,553,467,519,578,591,580,480,407,481,433
547,547,547,547,547,547,547,547,547,447,510,532,305,584,480,401,483,435
551,551,551,551,551,551,551,551,551,451,508,544,590,584,487,419,472,439
550,550,550,550,550,550,550,550,550,454,487,556,299,576,492,432,463,456
527,527,527,527,527,527,527,527,527,460,518,557,575,552,512,423,475,440
513,513,513,513,513,513,513,513,513,465,502,558,316,544,504,425,472,460
519,519,519,519,519,519,519,519,519,463,504,561,605,530,504,406,472,467
515,515,515,515,515,515,515,515,515,492,508,561,347,505,515,398,464,455
507,507,507,507,507,507,507,507,507,468,515,561,595,505,492,390,470,444
504,504,504,504,504,504,504,504,504,464,510,561,327,490,455,375,467,448
500,500,500,500,500,500,500,500,500,487,525,561,587,498,448,366,463,452
504,504,504,504,504,504,504,504,504,472,515,563,335,487,412,371,467,446
504,504,504,504,504,504,504,504,504,468,527,558,595,495,403,361,467,447
508,508,508,508,508,508,508,508,508,481,543,561,342,500,391,371,470,440
516,516,516,516,516,516,516,516,516,457,531,562,609,490,399,359,475,441
512,512,512,512,512,512,512,512,512,468,551,562,343,495,397,366,478,515
496,496,496,496,496,496,496,496,496,472,547,567,609,484,403,356,462,603
494,494,494,494,494,494,494,494,494,490,551,569,343,485,403,369,467,606
489,489,489,489,489,489,489,489,489,484,560,569,609,488,425,365,462,483
487,487,487,487,487,487,487,487,487,475,547,573,391,482,413,376,462,440
494,494,494,494,494,494,494,494,494,476,545,576,721,497,431,359,460,460
487,487,487,487,487,487,487,487,487,462,540,582,444,488,446,376,467,432
486,486,486,486,486,486,486,486,486,480,547,575,516,492,455,365,464,440
488,488,488,488,488,488,488,488,488,467,547,580,236,497,446,369,463,431
476,476,476,476,476,476,476,476,476,467,566,576,559,497,455,379,463,422
480,480,480,480,480,480,480,480,480,472,556,569,339,491,467,375,472,443
628,628,628,628,628,628,628,628,628,462,552,573,620,498,472,372,486,431
737,737,737,737,737,737,737,737,737,471,552,565,368,498,448,374,470,444
655,655,655,655,655,655,655,655,655,483,551,561,633,493,476,374,468,440
444,444,444,444,444,444,444,444,444,500,551,557,359,493,465,372,463,444
444,444,444,444,444,444,444,444,444,499,550,556,625,501,467,350,455,437
460,460,460,460,460,460,460,460,460,489,547,557,363,503,468,371,443,451
480,480,480,480,480,480,480,480,480,504,553,559,620,505,478,355,451,455
483,483,483,483,483,483,483,483,483,486,553,556,377,506,472,376,452,463
479,479,479,479,479,479,479,479,479,451,563,561,630,507,466,369,448,464
480,480,480,480,480,480,480,480,480,499,558,557,383,508,465,364,448,483
480,480,480,480,480,480,480,480,480,480,575,561,649,528,467,366,435,480
480,480,480,480,480,480,480,480,480,463,551,562,390,522,465,367,463,475
480,480,480,480,480,480,480,480,480,473,548,559,659,516,476,368,571,468
481,481,481,481,481,481,481,481,481,471,543,562,395,506,467,383,750,480
483,483,483,483,483,483,483,483,483,462,547,559,691,501,463,367,815,493
486,486,486,486,486,486,486,486,486,472,548,561,428,500,475,375,580,476
478,478,478,478,478,478,478,478,478,460,553,561,715,504,478,366,472,489
479,479,479,479,479,479,479,479,479,639,551,564,463,497,463,367,507,467
482,482,482,482,482,482,482,482,482,673,543,561,732,490,472,367,483,455
489,489,489,489,489,489,489,489,489,455,551,567,460,493,460,380,481,443
489,489,489,489,489,489,489,489,489,465,574,564,716,505,451,384,483,435
496,496,496,496,496,496,496,496,496,462,686,565,449,501,459,391,483,412
504,504,504,504,504,504,504,504,504,470,874,562,683,495,459,356,500,423
500,500,500,500,500,500,500,500,500,465,843,561,412,509,460,368,504,421
504,504,504,504,504,504,504,504,504,455,625,567,632,596,468,359,504,420
499,499,499,499,499,499,499,499,499,463,564,569,371,692,467,355,510,433
487,487,487,487,487,487,487,487,487,468,551,567,608,554,480,363,521,428
475,475,475,475,475,475,475,475,475,478,563,571,344,436,467,376,529,432
467,467,467,467,467,467,467,467,467,473,563,569,595,490,467,358,516,431
440,440,440,440,440,440,440,440,440,462,564,569,348,506,473,356,539,446
423,423,423,423,423,423,423,423,423,480,583,569,608,498,489,454,543,431
414,414,414,414,414,414,414,414,414,494,572,573,367,503,487,620,557,440
399,399,399,399,399,399,399,399,399,463,567,573,611,500,478,627,566,419
398,398,398,398,398,398,398,398,398,494,577,570,348,497,488,483,548,428
391,391,391,391,391,391,391,391,391,487,583,564,611,501,487,414,560,427
396,396,396,396,396,396,396,396,396,516,577,564,346,503,455,398,551,427
396,396,396,396,396,396,396,396,396,505,588,567,608,512,455,376,525,448
393,393,393,393,393,393,393,393,393,487,583,569,345,517,457,379,519,432
406,406,406,406,406,406,406,406,406,521,587,568,600,506,470,375,515,428
408,408,408,408,408,408,408,408,408,537,604,580,353,517,460,377,483,467
414,414,414,414,414,414,414,414,414,543,598,594,606,537,470,372,472,441
428,428,428,428,428,428,428,428,428,563,609,608,351,520,463,377,463,436
435,435,435,435,435,435,435,435,435,545,619,562,598,538,460,373,455,462
448,448,448,448,448,448,448,448,448,557,600,540,371,548,455,372,448,472
451,451,451,451,451,451,451,451,451,556,614,559,639,538,462,361,451,455
451,451,451,451,451,451,451,451,451,543,627,562,380,562,463,369,438,452
455,455,455,455,455,455,455,455,455,527,604,560,663,575,563,376,431,459
467,467,467,467,467,467,467,467,467,504,591,567,415,576,689,380,443,440
472,472,472,472,472,472,472,472,472,470,579,567,639,593,524,385,444,451
467,467,467,467,467,467,467,467,467,480,555,569,382,591,431,395,446,440
472,472,472,472,472,472,472,472,472,476,536,569,628,601,449,387,449,454
471,471,471,471,471,471,471,471,471,471,529,576,355,578,444,403,459,463
465,465,465,465,465,465,465,465,465,472,518,576,608,559,441,415,455,463
455,455,455,455,455,455,455,455,455,451,511,573,339,537,446,427,454,529
455,455,455,455,455,455,455,455,455,471,508,573,598,520,446,415,444,599
449,449,449,449,449,449,449,449,449,440,502,577,352,505,451,423,455,571
447,447,447,447,447,447,447,447,447,466,500,576,593,501,455,397,454,473
441,441,441,441,441,441,441,441,441,480,492,580,342,493,446,387,451,468
440,440,440,440,440,440,440,440,440,470,494,578,585,488,455,375,451,460
428,428,428,428,428,428,428,428,428,463,496,584,335,490,457,367,455,467
422,422,422,422,422,422,422,422,422,444,491,583,587,488,463,363,454,455
412,412,412,412,412,412,412,412,412,468,504,589,317,481,471,366,443,461
415,415,415,415,415,415,415,415,415,497,495,593,608,479,475,363,436,463
409,409,409,409,409,409,409,409,409,476,503,597,359,487,475,371,446,472
412,412,412,412,412,412,412,412,412,464,510,592,600,485,496,384,455,467
408,408,408,408,408,408,408,408,408,468,515,593,354,471,492,380,446,464
403,403,403,403,403,403,403,403,403,487,524,589,595,480,499,384,430,455
409,409,409,409,409,409,409,409,409,479,519,584,346,477,502,380,443,481
417,417,417,417,417,417,417,417,417,451,515,581,574,490,515,376,444,479
428,428,428,428,428,428,428,428,428,475,534,578,339,477,527,395,441,494
436,436,436,436,436,436,436,436,436,500,531,575,604,489,525,391,456,476
417,417,417,417,417,417,417,417,417,443,519,574,353,485,524,384,483,481
415,415,415,415,415,415,415,415,415,473,519,573,604,488,526,390,475,503
414,414,414,414,414,414,414,414,414,492,513,573,357,479,505,384,444,504
412,412,412,412,412,412,412,412,412,461,518,572,591,488,496,376,444,527
408,408,408,408,408,408,408,408,408,482,527,575,348,485,467,384,440,519
403,403,403,403,403,403,403,403,403,481,515,569,577,503,461,391,432,515
414,414,414,414,414,414,414,414,414,478,507,571,337,488,415,399,432,518
406,406,406,406,406,406,406,406,406,457,512,573,558,492,410,387,427,518
407,407,407,407,407,407,407,407,407,472,515,573,305,493,395,396,434,529
376,376,376,376,376,376,376,376,376,470,512,571,566,493,406,384,444,513
408,408,408,408,408,408,408,408,408,459,515,576,300,489,403,376,430,496
561,561,561,561,561,561,561,561,561,503,513,573,588,497,412,382,440,480
695,695,695,695,695,695,695,695,695,505,505,575,364,497,415,384,548,463
540,540,540,540,540,540,540,540,540,487,486,575,694,498,422,377,736,449
344,344,344,344,344,344,344,344,344,504,463,570,411,491,420,366,742,452
361,361,361,361,361,361,361,361,361,494,503,572,460,507,454,384,491,443
380,380,380,380,380,380,380,380,380,492,484,573,188,513,448,368,423,457
390,390,390,390,390,390,390,390,390,507,467,573,519,506,455,356,450,443
396,396,396,396,396,396,396,396,396,470,472,576,280,497,448,364,441,455
398,398,398,398,398,398,398,398,398,444,463,576,578,489,455,359,438,455
391,391,391,391,391,391,391,391,391,499,472,575,318,468,452,363,433,452
399,399,399,399,399,399,399,399,399,463,463,573,571,477,468,345,447,460
401,401,401,401,401,401,401,401,401,473,487,576,338,471,451,382,444,456
403,403,403,403,403,403,403,403,403,492,620,573,556,476,465,371,451,435
403,403,403,403,403,403,403,403,403,483,775,578,316,487,476,353,460,459
409,409,409,409,409,409,409,409,409,609,752,570,548,493,463,339,487,432
415,415,415,415,415,415,415,415,415,654,543,576,304,489,470,344,481,455
422,422,422,422,422,422,422,422,422,435,457,575,579,501,462,352,496,444
414,414,414,414,414,414,414,414,414,457,433,576,332,481,449,350,502,455
419,419,419,419,419,419,419,419,419,483,460,572,583,488,472,336,494,447
422,422,422,422,422,422,422,422,422,448,464,573,359,544,465,341,511,448
429,429,429,429,429,429,429,429,429,472,460,569,613,665,467,339,521,443
440,440,440,440,440,440,440,440,440,472,455,577,359,687,469,313,512,455
444,444,444,444,444,444,444,444,444,464,457,576,632,461,467,393,524,449
446,446,446,446,446,446,446,446,446,471,451,596,399,463,463,572,529,448
454,454,454,454,454,454,454,454,454,478,463,612,639,507,459,619,527,447
438,438,438,438,438,438,438,438,438,473,470,591,417,493,448,451,514,460
435,435,435,435,435,435,435,435,435,472,472,549,652,495,451,350,494,451
428,428,428,428,428,428,428,428,428,476,476,561,406,494,444,352,476,460
403,403,403,403,403,403,403,403,403,483,475,567,639,505,448,328,459,457
380,380,380,380,380,380,380,380,380,496,472,576,380,505,455,305,430,446
371,371,371,371,371,371,371,371,371,489,472,577,582,501,452,304,428,448
353,353,353,353,353,353,353,353,353,483,500,575,319,507,454,313,425,447
347,347,347,347,347,347,347,347,347,499,504,576,553,513,457,315,419,432
339,339,339,339,339,339,339,339,339,513,495,580,291,503,452,319,415,441
339,339,339,339,339,339,339,339,339,505,504,580,535,521,460,313,427,448
335,335,335,335,335,335,335,335,335,527,502,580,291,521,463,308,412,440
348,348,348,348,348,348,348,348,348,529,500,580,541,526,477,308,412,465
348,348,348,348,348,348,348,348,348,539,508,580,295,520,460,312,430,560
355,355,355,355,355,355,355,355,355,551,491,576,544,528,473,307,408,632
364,364,364,364,364,364,364,364,364,553,469,580,291,540,476,323,419,555
368,368,368,368,368,368,368,368,368,574,469,580,536,548,452,307,429,467
385,385,385,385,385,385,385,385,385,569,448,580,307,553,454,319,419,448
387,387,387,387,387,387,387,387,387,539,440,585,531,569,446,334,414,448
396,396,396,396,396,396,396,396,396,511,439,589,307,572,451,344,423,457
395,395,395,395,395,395,395,395,395,492,430,591,539,584,460,337,428,444
408,408,408,408,408,408,408,408,408,465,433,592,285,588,452,352,415,448
408,408,408,408,408,408,408,408,408,471,423,595,531,592,451,352,423,454
417,417,417,417,417,417,417,417,417,470,417,596,289,569,448,334,433,455
415,415,415,415,415,415,415,415,415,461,417,592,529,554,460,319,414,451
412,412,412,412,412,412,412,412,412,465,423,594,286,538,472,312,411,448
428,428,428,428,428,428,428,428,428,451,422,589,543,517,463,291,432,454
431,431,431,431,431,431,431,431,431,460,435,588,305,511,526,300,414,459
428,428,428,428,428,428,428,428,428,435,444,586,543,509,639,301,415,456
419,419,419,419,419,419,419,419,419,467,444,584,329,505,551,283,427,473
430,430,430,430,430,430,430,430,430,459,446,576,561,503,444,295,415,470
419,419,419,419,419,419,419,419,419,455,455,584,339,497,440,301,414,467
412,412,412,412,412,412,412,412,412,451,451,581,579,505,435,302,419,481
415,415,415,415,415,415,415,415,415,479,451,584,339,493,449,315,415,489
406,406,406,406,406,406,406,406,406,462,470,580,563,500,449,304,432,484
401,401,401,401,401,401,401,401,401,452,476,581,348,495,451,310,414,502
404,404,404,404,404,404,404,404,404,480,472,586,574,489,465,300,412,507
382,382,382,382,382,382,382,382,382,448,476,593,327,473,467,312,432,502
397,397,397,397,397,397,397,397,397,483,472,607,572,503,465,312,440,504
396,396,396,396,396,396,396,396,396,475,468,633,331,497,478,312,425,494
384,384,384,384,384,384,384,384,384,455,476,669,546,498,472,331,412,487
384,384,384,384,384,384,384,384,384,476,471,692,327,489,463,337,454,475
391,391,391,391,391,391,391,391,391,463,476,680,559,493,457,316,454,466
393,393,393,393,393,393,393,393,393,462,467,680,310,497,477,339,461,435
404,404,404,404,404,404,404,404,404,455,483,674,555,505,470,344,446,433
411,411,411,411,411,411,411,411,411,472,472,671,340,488,479,348,422,438
417,417,417,417,417,417,417,417,417,471,476,666,566,488,491,352,416,454
427,427,427,427,427,427,427,427,427,470,481,660,323,487,492,345,419,446
414,414,414,414,414,414,414,414,414,463,468,656,558,505,508,361,419,448
401,401,401,401,401,401,401,401,401,467,476,655,319,488,519,369,435,457
396,396,396,396,396,396,396,396,396,462,475,655,560,505,524,371,412,452
401,401,401,401,401,401,401,401,401,460,455,649,340,500,527,380,401,451
403,403,403,403,403,403,403,403,403,463,453,652,567,500,536,384,428,441
406,406,406,406,406,406,406,406,406,467,452,647,355,492,529,400,440,462
404,404,404,404,404,404,404,404,404,487,446,642,591,505,527,401,540,449
408,408,408,408,408,408,408,408,408,472,454,648,363,497,513,425,752,455
391,391,391,391,391,391,391,391,391,483,444,639,590,509,483,432,728,463
371,371,371,371,371,371,371,371,371,492,453,639,368,505,459,442,446,460
448,448,448,448,448,448,448,448,448,494,449,637,599,520,435,471,396,452
600,600,600,600,600,600,600,600,600,480,441,633,391,509,415,460,441,455
655,655,655,655,655,655,655,655,655,492,436,628,623,532,406,476,436,457
423,423,423,423,423,423,423,423,423,460,483,631,393,525,398,497,428,451
339,339,339,339,339,339,339,339,339,448,617,626,611,524,407,510,422,460
366,366,366,366,366,366,366,366,366,472,799,626,380,524,403,540,435,452
387,387,387,387,387,387,387,387,387,446,711,634,604,508,411,553,452,455
396,396,396,396,396,396,396,396,396,459,505,656,404,495,400,551,446,480
391,391,391,391,391,391,391,391,391,472,430,637,628,500,412,550,455,476
396,396,396,396,396,396,396,396,396,476,440,596,396,493,423,591,459,484
390,390,390,390,390,390,390,390,390,583,440,596,627,488,428,563,484,472
391,391,391,391,391,391,391,391,391,671,449,609,423,493,433,595,487,460
399,399,399,399,399,399,399,399,399,462,446,612,694,506,444,608,467,444
396,396,396,396,396,396,396,396,396,414,440,615,512,495,448,615,492,448
391,391,391,391,391,391,391,391,391,457,440,612,547,500,448,636,513,459
396,396,396,396,396,396,396,396,396,467,460,615,208,486,455,625,528,448
398,398,398,398,398,398,398,398,398,435,463,610,487,511,455,655,503,455
403,403,403,403,403,403,403,403,403,455,448,612,257,608,471,838,511,463
405,405,405,405,405,405,405,405,405,470,460,609,524,730,460,999,525,460
415,415,415,415,415,415,415,415,415,457,454,613,308,568,467,939,519,526
423,423,423,423,423,423,423,423,423,455,472,609,574,439,459,780,512,643
432,432,432,432,432,432,432,432,432,486,480,609,377,497,455,783,504,627
435,435,435,435,435,435,435,435,435,451,467,605,603,500,462,779,493,510
440,440,440,440,440,440,440,440,440,479,478,610,376,500,457,791,465,472
434,434,434,434,434,434,434,434,434,472,492,607,604,509,460,799,446,468
440,440,440,440,440,440,440,440,440,471,505,609,371,503,467,809,448,462
430,430,430,430,430,430,430,430,430,487,507,609,611,506,461,822,427,463
423,423,423,423,423,423,423,423,423,473,503,610,414,505,454,856,414,465
409,409,409,409,409,409,409,409,409,491,492,612,638,508,461,879,420,460
395,395,395,395,395,395,395,395,395,505,504,616,471,503,460,900,423,470
385,385,385,385,385,385,385,385,385,516,478,609,687,514,462,917,423,460
365,365,365,365,365,365,365,365,365,519,467,615,473,520,472,948,408,480
353,353,353,353,353,353,353,353,353,527,460,612,700,516,475,963,423,459
343,343,343,343,343,343,343,343,343,508,439,604,499,531,460,977,440,478
347,347,347,347,347,347,347,347,347,543,400,605,751,548,472,1003,423,491
335,335,335,335,335,335,335,335,335,548,433,596,530,533,463,1010,415,486
332,332,332,332,332,332,332,332,332,553,415,592,735,548,440,1010,419,480
339,339,339,339,339,339,339,339,339,543,404,592,508,556,460,1010,419,495
352,352,352,352,352,352,352,352,352,515,395,589,736,569,454,1010,431,496
351,351,351,351,351,351,351,351,351,502,417,593,492,561,444,1011,419,509
359,359,359,359,359,359,359,359,359,487,412,592,716,580,448,1011,428,527
376,376,376,376,376,376,376,376,376,476,415,591,476,586,448,1011,432,527
384,384,384,384,384,384,384,384,384,449,400,592,685,596,455,1011,425,514
391,391,391,391,391,391,391,391,391,435,417,591,451,608,446,1011,419,537
391,391,391,391,391,391,391,391,391,444,429,592,655,597,454,1011,431,517
412,412,412,412,412,412,412,412,412,473,431,592,440,576,469,1011,416,518
415,415,415,415,415,415,415,415,415,449,423,592,645,567,462,1011,431,507
412,412,412,412,412,412,412,412,412,423,447,589,415,540,529,1011,430,481
415,415,415,415,415,415,415,415,415,459,451,589,567,532,662,1011,430,471
423,423,423,423,423,423,423,423,423,455,455,592,297,511,563,1011,423,463
433,433,433,433,433,433,433,433,433,444,455,591,510,505,454,1011,435,451
438,438,438,438,438,438,438,438,438,475,460,592,289,501,435,1011,428,461
432,432,432,432,432,432,432,432,432,527,463,587,531,519,441,1011,432,455
440,440,440,440,440,440,440,440,440,655,457,585,304,503,454,1011,435,454
435,435,435,435,435,435,435,435,435,551,461,588,537,509,440,1011,441,460
435,435,435,435,435,435,435,435,435,398,457,588,331,503,451,1011,444,455
435,435,435,435,435,435,435,435,435,455,460,586,579,509,455,1011,438,449
422,422,422,422,422,422,422,422,422,460,472,592,380,498,451,1011,440,454
411,411,411,411,411,411,411,411,411,465,444,588,609,497,460,1011,440,455
423,423,423,423,423,423,423,423,423,467,465,589,419,484,467,1011,457,455
404,404,404,404,404,404,404,404,404,463,472,584,604,506,463,1011,454,448
398,398,398,398,398,398,398,398,398,451,465,588,423,505,473,1011,443,451
391,391,391,391,391,391,391,391,391,457,462,584,636,500,467,1011,444,460
385,385,385,385,385,385,385,385,385,463,457,588,436,495,472,1011,472,460
393,393,393,393,393,393,393,393,393,467,454,586,653,493,465,1011,460,460
388,388,388,388,388,388,388,388,388,462,462,589,440,511,472,1011,460,456
391,391,391,391,391,391,391,391,391,470,463,591,665,505,487,1011,467,452
408,408,408,408,408,408,408,408,408,467,457,591,435,503,483,1011,472,455
408,408,408,408,408,408,408,408,408,476,448,586,633,499,504,1011,476,459
400,400,400,400,400,400,400,400,400,472,467,589,425,493,508,1011,496,460
399,399,399,399,399,399,399,399,399,496,440,584,611,511,511,1011,504,460
383,383,383,383,383,383,383,383,383,519,444,584,408,489,516,1011,499,467
379,379,379,379,379,379,379,379,379,497,441,584,600,511,524,1011,486,464
387,387,387,387,387,387,387,387,387,502,439,584,415,505,529,1011,480,483
391,391,391,391,391,391,391,391,391,519,440,594,633,511,533,1011,463,471
391,391,391,391,391,391,391,391,391,516,438,617,443,505,511,1011,466,472
396,396,396,396,396,396,396,396,396,548,432,616,654,521,480,1011,483,449
403,403,403,403,403,403,403,403,403,550,432,572,472,520,441,1011,470,459
396,396,396,396,396,396,396,396,396,541,451,557,646,526,436,1011,467,441
372,372,372,372,372,372,372,372,372,532,452,578,435,528,423,1011,467,446
455,455,455,455,455,455,455,455,455,511,531,577,643,533,407,1011,463,448
605,605,605,605,605,605,605,605,605,475,760,588,424,528,409,1011,524,467
649,649,649,649,649,649,649,649,649,455,803,589,637,516,404,1011,694,452
424,424,424,424,424,424,424,424,424,443,563,584,422,493,412,1011,847,503
337,337,337,337,337,337,337,337,337,460,455,583,635,505,414,1011,653,609
368,368,368,368,368,368,368,368,368,455,441,588,454,493,419,1011,443,630
390,390,390,390,390,390,390,390,390,440,435,583,654,508,428,1011,496,515
395,395,395,395,395,395,395,395,395,445,422,584,455,497,436,1011,513,459
401,401,401,401,401,401,401,401,401,438,444,586,665,503,446,1011,489,454
396,396,396,396,396,396,396,396,396,463,451,585,471,497,440,1011,495,455
396,396,396,396,396,396,396,396,396,432,436,584,643,513,457,1011,499,452
407,407,407,407,407,407,407,407,407,457,444,586,449,495,467,1011,500,441
392,392,392,392,392,392,392,392,392,452,463,591,670,508,454,1011,519,449
403,403,403,403,403,403,403,403,403,467,454,592,465,575,472,1011,528,455
399,399,399,399,399,399,399,399,399,438,462,589,652,711,473,1011,529,451
403,403,403,403,403,403,403,403,403,462,465,595,446,637,472,1011,541,468
407,407,407,407,407,407,407,407,407,465,479,597,647,447,472,1011,553,455
408,408,408,408,408,408,408,408,408,446,483,605,440,487,463,1011,568,468
409,409,409,409,409,409,409,409,409,463,480,601,638,525,463,1011,574,472
415,415,415,415,415,415,415,415,415,452,487,607,440,501,475,1011,583,480
414,414,414,414,414,414,414,414,414,463,483,599,695,505,467,1011,591,472
433,433,433,433,433,433,433,433,433,451,508,599,551,512,468,1011,608,481
434,434,434,434,434,434,434,434,434,460,520,592,593,512,470,1011,609,487
433,433,433,433,433,433,433,433,433,463,524,592,268,516,467,1011,614,511
438,438,438,438,438,438,438,438,438,450,519,589,531,520,463,1011,620,492
434,434,434,434,434,434,434,434,434,460,510,592,352,512,465,1011,608,512
441,441,441,441,441,441,441,441,441,486,513,589,583,527,455,1011,600,519
430,430,430,430,430,430,430,430,430,487,496,589,395,521,449,1011,612,532
417,417,417,417,417,417,417,417,417,463,472,581,572,541,454,1011,596,515
396,396,396,396,396,396,396,396,396,441,451,587,387,527,447,1011,567,492
385,385,385,385,385,385,385,385,385,455,444,589,598,546,448,1011,564,516
364,364,364,364,364,364,364,364,364,479,438,585,419,545,452,1011,559,491
353,353,353,353,353,353,353,353,353,478,430,588,608,554,446,1011,567,480
343,343,343,343,343,343,343,343,343,487,408,592,400,552,452,1011,557,470
339,339,339,339,339,339,339,339,339,480,423,589,590,565,464,1011,553,463
335,335,335,335,335,335,335,335,335,478,433,586,395,573,456,1011,553,460
327,327,327,327,327,327,327,327,327,462,423,589,588,584,455,1011,559,454
316,316,316,316,316,316,316,316,316,472,419,592,432,583,448,1011,558,441
332,332,332,332,332,332,332,332,332,476,422,593,600,601,439,1011,543,447
335,335,335,335,335,335,335,335,335,471,433,594,440,589,451,1011,560,460
350,350,350,350,350,350,350,350,350,491,428,592,655,594,444,1011,574,448
360,360,360,360,360,360,360,360,360,504,444,594,454,581,444,1011,587,456
361,361,361,361,361,361,361,361,361,476,443,592,670,569,448,1011,574,463
380,380,380,380,380,380,380,380,380,483,457,592,478,538,463,1011,575,452
387,387,387,387,387,387,387,387,387,481,451,592,660,532,448,1011,569,445
393,393,393,393,393,393,393,393,393,480,455,596,463,513,449,1011,578,451
409,409,409,409,409,409,409,409,409,486,471,594,630,520,457,1011,568,463
408,408,408,408,408,408,408,408,408,508,467,593,419,512,451,1011,572,460
423,423,423,423,423,423,423,423,423,466,473,589,608,500,484,1011,575,463
422,422,422,422,422,422,422,422,422,478,472,591,406,512,608,1011,547,465
420,420,420,420,420,420,420,420,420,499,465,592,572,512,663,1011,582,444
428,428,428,428,428,428,428,428,428,487,467,596,387,497,509,1011,568,463
423,423,423,423,423,423,423,423,423,491,476,594,547,511,444,1011,553,454
432,432,432,432,432,432,432,432,432,483,465,596,343,497,465,1011,571,460
420,420,420,420,420,420,420,420,420,489,460,590,511,500,463,1011,563,457
417,417,417,417,417,417,417,417,417,496,465,594,312,490,457,1011,561,472
415,415,415,415,415,415,415,415,415,516,462,601,523,506,460,1011,553,463
406,406,406,406,406,406,406,406,406,516,440,597,327,505,461,1011,556,483
398,398,398,398,398,398,398,398,398,503,462,592,515,497,460,1011,563,459
391,391,391,391,391,391,391,391,391,511,451,596,329,495,461,1011,555,483
388,388,388,388,388,388,388,388,388,512,448,589,516,506,464,1011,560,478
382,382,382,382,382,382,382,382,382,496,449,592,316,492,472,1011,556,480
377,377,377,377,377,377,377,377,377,519,436,591,519,497,465,1011,543,467
376,376,376,376,376,376,376,376,376,524,449,592,302,498,471,1011,547,454
377,377,377,377,377,377,377,377,377,497,441,602,496,505,460,1011,551,457
384,384,384,384,384,384,384,384,384,491,444,623,323,500,473,1011,547,473
389,389,389,389,389,389,389,389,389,497,450,624,504,516,468,1011,547,448
398,398,398,398,398,398,398,398,398,473,457,584,324,512,473,1011,545,451
396,396,396,396,396,396,396,396,396,472,447,561,532,516,470,1011,538,441
391,391,391,391,391,391,391,391,391,486,469,578,345,518,487,1011,553,531
393,393,393,393,393,393,393,393,393,556,455,580,527,525,481,1011,556,633
384,384,384,384,384,384,384,384,384,696,448,589,350,524,496,1011,551,632
379,379,379,379,379,379,379,379,379,653,444,591,519,541,499,1011,553,499
391,391,391,391,391,391,391,391,391,459,440,590,340,513,505,1011,564,471
385,385,385,385,385,385,385,385,385,500,441,592,536,509,502,1011,555,454
385,385,385,385,385,385,385,385,385,497,441,588,348,493,508,1011,568,449
398,398,398,398,398,398,398,398,398,480,423,586,543,506,503,1011,577,452
391,391,391,391,391,391,391,391,391,475,445,588,368,503,481,1011,587,448
364,364,364,364,364,364,364,364,364,472,449,586,536,517,444,1011,579,451
387,387,387,387,387,387,387,387,387,492,440,589,345,500,441,1011,561,459
528,528,528,528,528,528,528,528,528,460,435,585,508,511,423,1011,558,460
659,659,659,659,659,659,659,659,659,471,558,588,324,506,399,1011,545,467
536,536,536,536,536,536,536,536,536,472,748,591,519,512,419,1011,545,455
335,335,335,335,335,335,335,335,335,487,777,591,316,498,399,1011,550,479
350,350,350,350,350,350,350,350,350,512,561,591,511,556,403,1011,545,472
364,364,364,364,364,364,364,364,364,516,438,592,329,653,423,1011,527,481
377,377,377,377,377,377,377,377,377,493,425,596,515,655,425,1011,551,478
387,387,387,387,387,387,387,387,387,487,424,599,318,464,440,1011,574,483
390,390,390,390,390,390,390,390,390,510,411,596,504,481,436,1011,681,504
384,384,384,384,384,384,384,384,384,477,440,596,318,508,444,1011,871,504
397,397,397,397,397,397,397,397,397,493,430,592,531,516,451,1011,845,511
398,398,398,398,398,398,398,398,398,536,417,590,329,509,467,1011,561,528
390,390,390,390,390,390,390,390,390,521,431,585,523,514,448,1011,519,511
387,387,387,387,387,387,387,387,387,550,432,578,352,525,471,1011,564,531
391,391,391,391,391,391,391,391,391,557,432,577,515,530,463,1011,547,519
401,401,401,401,401,401,401,401,401,540,435,576,327,521,467,1011,546,519
403,403,403,403,403,403,403,403,403,529,439,576,509,537,463,1011,556,507
401,401,401,401,401,401,401,401,401,551,454,573,332,520,467,1011,556,496
403,403,403,403,403,403,403,403,403,547,455,573,527,543,463,1011,553,479
412,412,412,412,412,412,412,412,412,542,455,575,333,528,460,1011,556,480
415,415,415,415,415,415,415,415,415,551,476,569,536,540,455,1011,572,448
423,423,423,423,423,423,423,423,423,525,467,574,359,531,467,1011,572,457
432,432,432,432,432,432,432,432,432,521,480,570,536,546,471,1011,575,448
425,425,425,425,425,425,425,425,425,491,496,570,396,544,463,1011,583,461
432,432,432,432,432,432,432,432,432,496,495,567,553,567,467,1011,600,454
428,428,428,428,428,428,428,428,428,487,487,568,363,569,478,1011,600,448
423,423,423,423,423,423,423,423,423,502,507,570,543,573,470,1011,591,455
406,406,406,406,406,406,406,406,406,467,489,571,353,570,468,1011,611,451
398,398,398,398,398,398,398,398,398,488,473,569,524,596,472,1011,604,457
380,380,380,380,380,380,380,380,380,484,459,572,353,592,471,1011,615,457
359,359,359,359,359,359,359,359,359,507,440,567,521,609,459,1011,609,444
358,358,358,358,358,358,358,358,358,487,432,565,350,597,457,1011,612,450
345,345,345,345,345,345,345,345,345,489,422,565,524,586,454,1011,596,451
344,344,344,344,344,344,344,344,344,481,415,567,366,561,460,1011,563,467
335,335,335,335,335,335,335,335,335,476,416,564,600,552,435,1011,563,463
339,339,339,339,339,339,339,339,339,471,408,569,444,525,446,1011,531,461
343,343,343,343,343,343,343,343,343,486,399,564,440,525,444,1011,519,463
347,347,347,347,347,347,347,347,347,483,415,567,192,511,459,1011,508,446
359,359,359,359,359,359,359,359,359,489,425,569,435,525,449,1011,504,435
366,366,366,366,366,366,366,366,366,491,423,569,281,511,472,1011,471,448
375,375,375,375,375,375,375,375,375,492,422,565,515,512,467,1011,472,467
384,384,384,384,384,384,384,384,384,475,432,565,335,508,476,1011,466,455
392,392,392,392,392,392,392,392,392,469,444,564,515,517,461,1011,455,448
399,399,399,399,399,399,399,399,399,478,436,564,359,498,454,1011,473,449
415,415,415,415,415,415,415,415,415,473,440,565,519,511,460,1011,480,444
422,422,422,422,422,422,422,422,422,476,455,564,347,501,455,1011,463,472
431,431,431,431,431,431,431,431,431,482,440,562,513,513,452,1011,480,448
438,438,438,438,438,438,438,438,438,487,461,568,327,501,471,1011,478,430
438,438,438,438,438,438,438,438,438,473,470,562,515,511,455,1011,463,423
443,443,443,443,443,443,443,443,443,488,464,562,348,503,472,1011,472,444
447,447,447,447,447,447,447,447,447,484,467,561,508,505,463,1011,478,419
452,452,452,452,452,452,452,452,452,455,470,567,312,505,472,1011,476,432
455,455,455,455,455,455,455,455,455,461,467,562,536,503,472,1011,470,432
451,451,451,451,451,451,451,451,451,476,471,569,406,489,475,1011,485,428
452,452,452,452,452,452,452,452,452,481,446,581,590,493,512,1011,472,446
446,446,446,446,446,446,446,446,446,494,472,601,422,488,649,1011,468,556
443,443,443,443,443,443,443,443,443,499,475,585,572,506,622,1011,465,632
438,438,438,438,438,438,438,438,438,496,457,538,408,513,476,1011,451,572
433,433,433,433,433,433,433,433,433,487,460,541,585,514,451,1011,463,461
439,439,439,439,439,439,439,439,439,496,463,559,399,508,463,1011,456,452
435,435,435,435,435,435,435,435,435,499,463,559,555,528,451,1010,468,439
428,428,428,428,428,428,428,428,428,483,459,561,369,520,454,1011,460,440
434,434,434,434,434,434,434,434,434,467,460,560,502,520,444,1011,454,436
428,428,428,428,428,428,428,428,428,457,457,559,324,492,450,1011,470,448
438,438,438,438,438,438,438,438,438,472,463,561,473,505,455,1011,470,451
440,440,440,440,440,440,440,440,440,472,473,559,280,485,448,1011,451,451
449,449,449,449,449,449,449,449,449,462,460,561,483,499,440,1010,465,451
447,447,447,447,447,447,447,447,447,487,463,561,303,488,477,1010,455,462
448,448,448,448,448,448,448,448,448,609,448,561,479,495,457,1004,451,455
451,451,451,451,451,451,451,451,451,663,440,562,337,501,467,975,463,472
439,439,439,439,439,439,439,439,439,463,452,558,518,506,467,964,457,478
430,430,430,430,430,430,430,430,430,449,446,561,369,484,472,979,460,473
440,440,440,440,440,440,440,440,440,465,463,567,556,493,468,958,451,491
440,440,440,440,440,440,440,440,440,459,460,567,396,503,480,947,460,499
440,440,440,440,440,440,440,440,440,468,462,567,555,591,475,945,459,487
445,445,445,445,445,445,445,445,445,454,451,573,423,717,486,934,462,511
440,440,440,440,440,440,440,440,440,476,462,572,582,625,483,905,451,507
417,417,417,417,417,417,417,417,417,467,480,576,428,445,499,907,476,524
449,449,449,449,449,449,449,449,449,467,603,577,583,500,515,878,499,508
583,583,583,583,583,583,583,583,583,481,793,573,438,525,510,875,476,519
728,728,728,728,728,728,728,728,728,473,743,569,583,521,512,864,460,521
620,620,620,620,620,620,620,620,620,472,540,570,409,496,512,847,466,515
397,397,397,397,397,397,397,397,397,480,472,564,555,528,487,856,467,502
414,414,414,414,414,414,414,414,414,483,448,564,396,481,471,844,452,496
423,423,423,423,423,423,423,423,423,467,465,561,563,525,425,831,438,467
443,443,443,443,443,443,443,443,443,497,465,563,414,509,412,830,436,466
449,449,449,449,449,449,449,449,449,486,462,557,583,509,391,815,444,457
448,448,448,448,448,448,448,448,448,495,472,557,437,516,393,803,440,455
455,455,455,455,455,455,455,455,455,523,472,559,612,552,384,790,432,440
448,448,448,448,448,448,448,448,448,527,470,561,448,537,387,776,444,455
455,455,455,455,455,455,455,455,455,521,472,558,583,537,385,769,599,455
460,460,460,460,460,460,460,460,460,541,483,560,415,527,407,774,788,460
453,453,453,453,453,453,453,453,453,542,480,562,543,511,387,754,719,449
455,455,455,455,455,455,455,455,455,552,473,557,368,530,411,748,441,456
460,460,460,460,460,460,460,460,460,547,486,560,500,520,408,756,412,457
465,465,465,465,465,465,465,465,465,536,496,561,331,561,435,754,459,455
467,467,467,467,467,467,467,467,467,521,494,559,502,584,431,743,444,448
468,468,468,468,468,468,468,468,468,520,499,557,347,562,443,750,439,454
487,487,487,487,487,487,487,487,487,470,511,552,515,569,444,739,435,448
486,486,486,486,486,486,486,486,486,468,526,556,359,584,447,737,460,460
495,495,495,495,495,495,495,495,495,470,527,552,494,576,451,719,452,447
499,499,499,499,499,499,499,499,499,459,527,552,323,546,455,706,451,455
504,504,504,504,504,504,504,504,504,442,524,541,476,576,459,697,455,451
508,508,508,508,508,508,508,508,508,454,513,552,310,543,454,672,468,440
499,499,499,499,499,499,499,499,499,457,508,551,492,535,448,639,476,446
486,486,486,486,486,486,486,486,486,425,492,548,348,509,470,755,487,440
484,484,484,484,484,484,484,484,484,433,463,551,519,528,451,903,494,444
465,465,465,465,465,465,465,465,465,467,463,556,361,490,452,927,504,441
441,441,441,441,441,441,441,441,441,446,455,557,515,496,455,748,536,455
427,427,427,427,427,427,427,427,427,455,443,552,355,483,462,649,504,472
415,415,415,415,415,415,415,415,415,431,432,553,499,500,455,636,523,459
399,399,399,399,399,399,399,399,399,448,435,558,374,497,463,604,531,460
403,403,403,403,403,403,403,403,403,479,430,557,552,500,451,599,536,440
387,387,387,387,387,387,387,387,387,440,423,557,419,474,463,584,516,451
388,388,388,388,388,388,388,388,388,447,425,553,598,495,441,569,504,447
396,396,396,396,396,396,396,396,396,480,419,552,468,452,463,572,502,451
404,404,404,404,404,404,404,404,404,468,440,551,595,474,443,559,480,438
406,406,406,406,406,406,406,406,406,455,446,549,463,473,455,564,463,450
409,409,409,409,409,409,409,409,409,440,445,549,583,484,435,555,444,436
423,423,423,423,423,423,423,423,423,452,455,552,463,479,440,547,417,497
432,432,432,432,432,432,432,432,432,455,460,554,624,493,452,529,406,600
447,447,447,447,447,447,447,447,447,472,465,578,480,471,451,515,406,614
448,448,448,448,448,448,448,448,448,460,471,570,652,484,446,517,396,502
457,457,457,457,457,457,457,457,457,448,492,528,483,482,447,524,388,457
467,467,467,467,467,467,467,467,467,466,480,525,635,471,447,515,401,448
470,470,470,470,470,470,470,470,470,463,487,540,472,493,457,519,403,460
476,476,476,476,476,476,476,476,476,455,484,540,625,493,451,515,412,463
483,483,483,483,483,483,483,483,483,467,489,543,511,493,468,515,396,455
487,487,487,487,487,487,487,487,487,460,494,544,736,479,455,496,399,459
480,480,480,480,480,480,480,480,480,439,483,546,563,477,472,508,408,455
476,476,476,476,476,476,476,476,476,462,496,548,524,505,463,486,412,460
484,484,484,484,484,484,484,484,484,472,483,546,307,508,451,462,414,476
478,478,478,478,478,478,478,478,478,463,476,544,538,506,446,440,420,467
480,480,480,480,480,480,480,480,480,486,487,545,432,495,455,399,423,480
471,471,471,471,471,471,471,471,471,476,492,546,601,516,444,384,411,470
465,465,465,465,465,465,465,465,465,464,471,545,459,513,455,382,425,487
463,463,463,463,463,463,463,463,463,475,463,549,607,532,444,382,425,480
457,457,457,457,457,457,457,457,457,479,478,552,459,516,451,371,409,487
451,451,451,451,451,451,451,451,451,467,455,552,620,494,452,382,415,499
448,448,448,448,448,448,448,448,448,431,468,557,471,479,460,371,423,500
448,448,448,448,448,448,448,448,448,448,462,554,620,504,448,363,419,510
433,433,433,433,433,433,433,433,433,448,460,563,483,476,457,359,409,518
433,433,433,433,433,433,433,433,433,457,460,557,636,488,494,355,408,512
432,432,432,432,432,432,432,432,432,457,463,562,483,461,632,372,415,528
432,432,432,432,432,432,432,432,432,519,472,562,620,468,612,352,399,531
440,440,440,440,440,440,440,440,440,668,472,564,483,552,472,356,398,515
444,444,444,444,444,444,444,444,444,569,476,565,631,524,441,363,409,515
460,460,460,460,460,460,460,460,460,403,481,564,523,477,441,368,408,500
457,457,457,457,457,457,457,457,457,438,472,559,698,500,451,365,411,483
451,451,451,451,451,451,451,451,451,428,462,553,564,528,451,370,419,467
448,448,448,448,448,448,448,448,448,460,455,552,742,689,441,359,411,444
443,443,443,443,443,443,443,443,443,455,457,546,591,757,463,363,417,463
448,448,448,448,448,448,448,448,448,438,462,548,759,513,455,342,404,455
451,451,451,451,451,451,451,451,451,455,472,554,600,488,456,348,396,448
449,449,449,449,449,449,449,449,449,471,463,549,739,512,454,344,406,444
440,440,440,440,440,440,440,440,440,457,465,556,583,512,462,327,412,451
449,449,449,449,449,449,449,449,449,472,470,552,709,537,468,344,423,449
455,455,455,455,455,455,455,455,455,441,460,557,543,528,467,332,419,448
415,415,415,415,415,415,415,415,415,451,448,552,670,537,465,329,430,444
467,467,467,467,467,467,467,467,467,470,543,555,527,526,476,332,451,448
611,611,611,611,611,611,611,611,611,455,681,557,679,524,478,323,446,451
736,736,736,736,736,736,736,736,736,487,816,557,531,497,486,319,430,448
569,569,569,569,569,569,569,569,569,475,679,554,647,621,476,310,415,448
375,375,375,375,375,375,375,375,375,489,505,559,492,521,504,302,417,451
401,401,401,401,401,401,401,401,401,500,449,557,633,541,500,290,412,440
417,417,417,417,417,417,417,417,417,527,447,558,484,574,515,295,417,444
428,428,428,428,428,428,428,428,428,499,440,560,639,517,515,291,404,448
439,439,439,439,439,439,439,439,439,496,439,561,499,544,526,283,412,449
438,438,438,438,438,438,438,438,438,534,446,559,641,578,521,277,408,448
450,450,450,450,450,450,450,450,450,524,444,562,491,520,529,287,412,464
511,511,511,511,511,511,511,511,511,540,452,561,624,583,499,271,452,463
531,531,531,531,531,531,531,531,531,553,462,561,477,580,492,263,572,468
511,511,511,511,511,511,511,511,511,531,436,561,611,578,451,263,734,463
511,511,511,511,511,511,511,511,511,504,452,565,489,576,425,272,654,467
504,504,504,504,504,504,504,504,504,504,455,562,617,620,399,267,409,456
496,496,496,496,496,496,496,496,496,460,469,565,495,612,396,273,398,460
487,487,487,487,487,487,487,487,487,440,481,565,639,616,383,275,428,449
496,496,496,496,496,496,496,496,496,454,468,567,510,584,399,244,423,463
487,487,487,487,487,487,487,487,487,441,475,568,646,597,377,240,427,449
497,497,497,497,497,497,497,497,497,435,489,572,510,544,399,237,428,455
487,487,487,487,487,487,487,487,487,451,500,569,649,544,395,230,433,448
497,497,497,497,497,497,497,497,497,454,500,572,495,524,415,227,431,451
508,508,508,508,508,508,508,508,508,436,508,564,620,490,428,214,451,504
504,504,504,504,504,504,504,504,504,448,519,565,467,484,435,217,467,617
499,499,499,499,499,499,499,499,499,448,507,569,596,469,431,220,459,632
497,497,497,497,497,497,497,497,497,440,515,567,472,461,460,195,464,527
496,496,496,496,496,496,496,496,496,444,500,570,611,488,440,192,489,465
476,476,476,476,476,476,476,476,476,441,483,576,504,477,457,344,483,479
455,455,455,455,455,455,455,455,455,432,468,592,620,475,462,496,504,430
435,435,435,435,435,435,435,435,435,440,451,604,464,479,452,438,502,460
428,428,428,428,428,428,428,428,428,454,439,567,547,478,462,259,519,448
408,408,408,408,408,408,408,408,408,470,417,544,371,456,477,217,524,451
393,393,393,393,393,393,393,393,393,455,419,556,475,482,460,209,529,463
387,387,387,387,387,387,387,387,387,438,428,565,356,461,465,199,536,449
387,387,387,387,387,387,387,387,387,455,419,567,494,477,467,193,518,463
382,382,382,382,382,382,382,382,382,450,444,570,374,455,470,182,496,462
376,376,376,376,376,376,376,376,376,452,428,564,523,441,455,187,495,462
376,376,376,376,376,376,376,376,376,440,430,573,399,445,480,192,480,472
388,388,388,388,388,388,388,388,388,454,427,572,540,436,459,177,449,476
396,396,396,396,396,396,396,396,396,444,419,572,412,413,451,184,446,485
399,399,399,399,399,399,399,399,399,451,431,573,551,409,453,179,425,482
407,407,407,407,407,407,407,407,407,435,428,576,412,386,464,176,419,487
418,418,418,418,418,418,418,418,418,471,444,573,555,377,441,177,425,507
423,423,423,423,423,423,423,423,423,463,451,575,435,385,459,188,403,498
432,432,432,432,432,432,432,432,432,439,448,573,553,372,449,175,399,504
439,439,439,439,439,439,439,439,439,443,451,573,434,377,457,195,415,519
455,455,455,455,455,455,455,455,455,441,448,575,569,385,440,190,396,511
457,457,457,457,457,457,457,457,457,452,446,581,455,392,459,187,408,518
455,455,455,455,455,455,455,455,455,470,451,580,575,359,455,190,411,515
476,476,476,476,476,476,476,476,476,473,463,584,472,407,460,220,423,502
467,467,467,467,467,467,467,467,467,455,444,584,591,477,460,203,428,487
468,468,468,468,468,468,468,468,468,483,451,592,463,421,455,209,412,478
466,466,466,466,466,466,466,466,466,479,454,586,579,455,444,184,419,457
475,475,475,475,475,475,475,475,475,476,445,589,472,447,440,176,441,449
465,465,465,465,465,465,465,465,465,444,447,584,582,447,445,152,425,444
461,461,461,461,461,461,461,461,461,444,435,586,444,415,454,145,423,440
457,457,457,457,457,457,457,457,457,443,439,580,558,404,446,133,428,441
454,454,454,454,454,454,454,454,454,448,430,581,428,434,462,120,428,449
448,448,448,448,448,448,448,448,448,435,437,569,561,456,454,122,440,432
438,438,438,438,438,438,438,438,438,451,422,573,446,452,449,120,425,443
430,430,430,430,430,430,430,430,430,455,438,573,621,456,460,127,438,438
431,431,431,431,431,431,431,431,431,518,420,575,582,433,471,118,435,433
435,435,435,435,435,435,435,435,435,681,419,575,643,439,454,120,419,440
440,440,440,440,440,440,440,440,440,536,430,577,327,423,483,110,428,436
438,438,438,438,438,438,438,438,438,408,415,576,467,426,563,113,416,434
441,441,441,441,441,441,441,441,441,449,415,576,387,528,647,120,423,443
443,443,443,443,443,443,443,443,443,437,413,576,543,624,505,110,414,438
428,428,428,428,428,428,428,428,428,423,409,573,451,516,439,110,423,436
427,427,427,427,427,427,427,427,427,435,406,576,583,381,435,112,436,451
415,415,415,415,415,415,415,415,415,460,403,575,460,415,455,115,428,440
423,423,423,423,423,423,423,423,423,463,416,577,569,447,444,112,432,440
419,419,419,419,419,419,419,419,419,462,415,578,455,441,451,102,416,457
420,420,420,420,420,420,420,420,420,461,416,580,563,473,441,99,427,441
419,419,419,419,419,419,419,419,419,465,416,576,459,450,456,113,444,449
419,419,419,419,419,419,419,419,419,463,423,581,577,505,444,106,425,438
423,423,423,423,423,423,423,423,423,451,425,580,448,505,457,105,425,448
411,411,411,411,411,411,411,411,411,457,428,581,574,491,463,79,463,463
440,440,440,440,440,440,440,440,440,455,428,578,451,473,460,89,463,465
575,575,575,575,575,575,575,575,575,472,423,580,573,524,463,83,455,451
681,681,681,681,681,681,681,681,681,480,422,583,487,497,467,75,459,448
541,541,541,541,541,541,541,541,541,487,449,585,595,472,455,84,440,419
379,379,379,379,379,379,379,379,379,486,449,583,480,513,472,89,427,423
388,388,388,388,388,388,388,388,388,499,427,584,623,556,455,80,425,420
409,409,409,409,409,409,409,409,409,527,435,581,497,535,473,76,428,422
435,435,435,435,435,435,435,435,435,521,444,582,550,532,472,63,440,406
428,428,428,428,428,428,428,428,428,534,427,589,408,532,496,70,428,417
425,425,425,425,425,425,425,425,425,540,429,589,502,549,491,66,433,432
432,432,432,432,432,432,432,432,432,547,435,587,352,523,503,65,430,540
439,439,439,439,439,439,439,439,439,531,437,581,455,510,507,78,470,627
428,428,428,428,428,428,428,428,428,521,436,584,312,528,508,71,601,568
430,430,430,430,430,430,430,430,430,510,439,583,422,552,499,70,758,460
435,435,435,435,435,435,435,435,435,494,448,584,307,513,505,70,614,463
440,440,440,440,440,440,440,440,440,455,540,581,441,517,483,65,423,433
440,440,440,440,440,440,440,440,440,444,716,585,324,506,451,83,451,457
444,444,444,444,444,444,444,444,444,462,803,592,449,517,405,72,444,459
448,448,448,448,448,448,448,448,448,440,598,612,333,456,403,81,444,463
448,448,448,448,448,448,448,448,448,455,464,618,459,488,388,79,441,451
463,463,463,463,463,463,463,463,463,448,448,578,353,491,396,99,438,468
463,463,463,463,463,463,463,463,463,435,441,557,483,485,385,74,440,481
467,467,467,467,467,467,467,467,467,430,451,576,368,506,391,71,453,484
468,468,468,468,468,468,468,468,468,439,440,584,487,505,388,60,467,494
475,475,475,475,475,475,475,475,475,453,454,584,383,495,388,48,483,502
480,480,480,480,480,480,480,480,480,448,446,583,511,498,391,70,489,499
466,466,466,466,466,466,466,466,466,455,448,583,387,527,415,61,487,503
464,464,464,464,464,464,464,464,464,435,440,589,511,535,408,60,499,496
448,448,448,448,448,448,448,448,448,451,451,586,393,530,432,51,510,508
448,448,448,448,448,448,448,448,448,443,478,589,507,567,427,33,515,519
425,425,425,425,425,425,425,425,425,436,463,585,403,543,446,73,514,519
408,408,408,408,408,408,408,408,408,471,472,585,504,525,435,257,531,524
395,395,395,395,395,395,395,395,395,460,473,588,399,530,446,353,536,536
379,379,379,379,379,379,379,379,379,451,487,588,516,520,448,216,540,537
368,368,368,368,368,368,368,368,368,428,481,590,395,506,448,71,537,534
372,372,372,372,372,372,372,372,372,460,493,591,512,516,443,59,519,536
376,376,376,376,376,376,376,376,376,467,499,591,399,520,454,39,504,521
364,364,364,364,364,364,364,364,364,446,505,592,510,530,450,39,505,508
371,371,371,371,371,371,371,371,371,459,516,594,384,513,459,44,478,494
375,375,375,375,375,375,375,375,375,476,515,594,505,530,451,30,454,494
384,384,384,384,384,384,384,384,384,455,528,596,384,528,460,35,439,475
387,387,387,387,387,387,387,387,387,428,515,601,497,543,446,46,419,465
393,393,393,393,393,393,393,393,393,448,499,601,399,530,449,49,409,466
408,408,408,408,408,408,408,408,408,461,483,596,512,552,452,47,415,455
421,421,421,421,421,421,421,421,421,459,467,595,387,537,455,56,404,465
428,428,428,428,428,428,428,428,428,444,445,594,481,553,456,49,403,461
423,423,423,423,423,423,423,423,423,460,440,587,380,525,446,67,420,462
431,431,431,431,431,431,431,431,431,460,436,591,491,528,451,46,409,460
444,444,444,444,444,444,444,444,444,467,439,585,384,525,452,76,417,451
444,444,444,444,444,444,444,444,444,470,423,584,479,541,444,78,422,451
440,440,440,440,440,440,440,440,440,449,417,585,369,525,451,84,416,461
449,449,449,449,449,449,449,449,449,480,427,584,480,537,435,83,423,455
448,448,448,448,448,448,448,448,448,468,419,584,364,516,463,99,432,455
448,448,448,448,448,448,448,448,448,463,421,586,494,544,439,100,425,460
448,448,448,448,448,448,448,448,448,476,423,584,384,541,451,99,428,451
440,440,440,440,440,440,440,440,440,481,424,584,496,541,449,100,422,462
452,452,452,452,452,452,452,452,452,478,428,586,385,525,462,92,428,457
440,440,440,440,440,440,440,440,440,473,439,584,476,559,455,70,435,467
436,436,436,436,436,436,436,436,436,462,432,584,359,644,471,54,425,448
428,428,428,428,428,428,428,428,428,433,446,584,492,728,467,39,427,450
428,428,428,428,428,428,428,428,428,448,460,588,391,545,472,47,441,455
422,422,422,422,422,422,422,422,422,453,452,588,508,494,473,24,425,467
417,417,417,417,417,417,417,417,417,432,451,589,387,537,481,31,433,463
412,412,412,412,412,412,412,412,412,472,465,583,494,543,476,25,420,453
414,414,414,414,414,414,414,414,414,583,456,588,387,520,487,33,417,476
422,422,422,422,422,422,422,422,422,668,451,585,489,532,472,16,415,487
424,424,424,424,424,424,424,424,424,481,468,584,371,505,467,24,435,469
431,431,431,431,431,431,431,431,431,431,457,591,459,497,463,31,431,457
409,409,409,409,409,409,409,409,409,435,471,589,348,505,475,33,431,460
406,406,406,406,406,406,406,406,406,443,463,584,448,519,463,16,417,456
411,411,411,411,411,411,411,411,411,449,463,586,383,487,468,24,417,463
399,399,399,399,399,399,399,399,399,457,459,584,518,452,461,19,423,460
403,403,403,403,403,403,403,403,403,440,455,584,494,436,468,22,432,455
404,404,404,404,404,404,404,404,404,463,452,584,494,505,448,29,443,449
409,409,409,409,409,409,409,409,409,452,432,588,215,516,473,27,457,472
409,409,409,409,409,409,409,409,409,449,440,585,370,552,448,34,457,579
400,400,400,400,400,400,400,400,400,462,441,589,271,565,487,35,448,654
390,390,390,390,390,390,390,390,390,449,432,583,423,573,595,44,431,579
489,489,489,489,489,489,489,489,489,459,436,585,355,605,666,23,449,480
648,648,648,648,648,648,648,648,648,467,423,580,445,618,491,37,429,472
667,667,667,667,667,667,667,667,667,477,430,573,353,616,448,38,423,471
417,417,417,417,417,417,417,417,417,487,443,581,465,640,443,31,427,455
359,359,359,359,359,359,359,359,359,483,433,576,366,656,461,39,428,455
387,387,387,387,387,387,387,387,387,476,431,581,478,680,441,44,423,449
399,399,399,399,399,399,399,399,399,487,433,597,368,644,448,48,423,455
409,409,409,409,409,409,409,409,409,523,451,616,480,625,450,39,455,449
409,409,409,409,409,409,409,409,409,515,432,605,381,637,460,60,561,467
409,409,409,409,409,409,409,409,409,519,432,548,486,602,448,62,728,463
419,419,419,419,419,419,419,419,419,536,435,548,390,567,459,56,727,439
411,411,411,411,411,411,411,411,411,543,446,570,487,588,448,68,472,454
419,419,419,419,419,419,419,419,419,547,438,573,411,575,471,56,430,447
417,417,417,417,417,417,417,417,417,545,432,571,519,574,463,71,459,467
418,418,418,418,418,418,418,418,418,524,451,573,443,569,473,63,448,483
423,423,423,423,423,423,423,423,423,496,444,576,551,585,467,79,451,482
428,428,428,428,428,428,428,428,428,478,440,573,452,561,473,68,455,495
423,423,423,423,423,423,423,423,423,455,452,575,560,580,473,76,457,480
419,419,419,419,419,419,419,419,419,430,451,573,472,559,487,81,463,505
433,433,433,433,433,433,433,433,433,455,467,575,558,561,483,73,455,496
438,438,438,438,438,438,438,438,438,463,463,575,465,557,507,100,480,505
432,432,432,432,432,432,432,432,432,439,472,577,532,583,498,91,494,508
449,449,449,449,449,449,449,449,449,431,472,576,417,557,510,71,481,521
448,448,448,448,448,448,448,448,448,455,476,580,489,574,513,67,512,499
448,448,448,448,448,448,448,448,448,443,476,580,363,570,516,69,496,481
451,451,451,451,451,451,451,451,451,448,457,584,462,565,504,67,513,475
435,435,435,435,435,435,435,435,435,447,460,583,359,551,519,68,532,475
428,428,428,428,428,428,428,428,428,448,467,584,432,592,484,76,536,448
404,404,404,404,404,404,404,404,404,435,440,588,334,565,465,76,534,455
389,389,389,389,389,389,389,389,389,427,476,592,411,573,432,67,556,448
380,380,380,380,380,380,380,380,380,441,467,592,311,569,431,51,544,455
357,357,357,357,357,357,357,357,357,444,459,592,420,578,403,124,540,448
353,353,353,353,353,353,353,353,353,448,448,593,318,562,403,295,524,456
337,337,337,337,337,337,337,337,337,462,455,588,414,601,392,335,513,468
343,343,343,343,343,343,343,343,343,455,513,586,321,589,407,196,499,455
337,337,337,337,337,337,337,337,337,441,659,581,435,597,391,77,467,472
340,340,340,340,340,340,340,340,340,446,803,575,323,589,423,92,451,457
353,353,353,353,353,353,353,353,353,448,692,575,435,593,403,91,424,451
351,351,351,351,351,351,351,351,351,469,496,576,319,567,415,75,412,479
355,355,355,355,355,355,355,355,355,460,443,575,433,576,417,79,412,463
369,369,369,369,369,369,369,369,369,463,449,576,346,563,438,81,399,460
374,374,374,374,374,374,374,374,374,446,439,576,454,583,440,92,415,472
384,384,384,384,384,384,384,384,384,440,446,576,353,561,448,92,399,455
391,391,391,391,391,391,391,391,391,449,438,572,451,572,448,91,415,478
396,396,396,396,396,396,396,396,396,444,425,576,391,554,454,99,428,472
401,401,401,401,401,401,401,401,401,451,449,576,467,544,463,94,420,468
404,404,404,404,404,404,404,404,404,451,460,576,379,546,455,112,423,480
412,412,412,412,412,412,412,412,412,463,444,573,460,560,463,107,427,455
415,415,415,415,415,415,415,415,415,463,455,569,371,557,463,115,422,475
424,424,424,424,424,424,424,424,424,476,468,569,450,562,460,126,423,484
415,415,415,415,415,415,415,415,415,431,463,569,355,634,471,155,432,472
420,420,420,420,420,420,420,420,420,444,480,569,455,780,465,135,440,463
423,423,423,423,423,423,423,423,423,452,475,570,371,730,476,148,428,452
417,417,417,417,417,417,417,417,417,463,472,569,436,519,459,155,443,452
422,422,422,422,422,422,422,422,422,476,486,569,348,512,475,166,451,455
415,415,415,415,415,415,415,415,415,476,505,571,443,587,462,156,443,459
411,411,411,411,411,411,411,411,411,472,507,572,355,548,463,143,444,455
409,409,409,409,409,409,409,409,409,476,496,569,464,565,455,153,428,448
408,408,408,408,408,408,408,408,408,467,515,569,380,552,463,114,440,462
400,400,400,400,400,400,400,400,400,455,519,570,459,570,448,121,443,552
385,385,385,385,385,385,385,385,385,441,505,570,377,562,465,103,444,647
390,390,390,390,390,390,390,390,390,432,508,573,470,580,447,96,447,572
379,379,379,379,379,379,379,379,379,448,492,578,380,576,451,111,449,489
380,380,380,380,380,380,380,380,380,460,470,578,460,591,455,113,452,481
384,384,384,384,384,384,384,384,384,444,463,575,385,578,452,105,438,463
376,376,376,376,376,376,376,376,376,464,451,573,464,580,446,95,452,460
381,381,381,381,381,381,381,381,381,604,430,578,380,584,463,103,452,475
385,385,385,385,385,385,385,385,385,608,453,575,462,601,444,96,448,467
391,391,391,391,391,391,391,391,391,411,438,573,384,592,461,105,448,465
385,385,385,385,385,385,385,385,385,448,436,572,469,609,450,115,462,483
380,380,380,380,380,380,380,380,380,448,430,570,376,612,472,118,503,478
380,380,380,380,380,380,380,380,380,455,440,573,470,618,460,115,503,473
374,374,374,374,374,374,374,374,374,423,449,581,389,599,460,113,487,480
376,376,376,376,376,376,376,376,376,440,431,601,473,613,460,108,486,481
380,380,380,380,380,380,380,380,380,455,447,611,395,660,463,115,472,496
376,376,376,376,376,376,376,376,376,455,448,580,478,663,455,123,470,483
382,382,382,382,382,382,382,382,382,467,448,544,379,642,483,121,455,492
376,376,376,376,376,376,376,376,376,456,455,564,450,653,464,120,452,492
364,364,364,364,364,364,364,364,364,467,464,569,382,625,470,124,475,497
391,391,391,391,391,391,391,391,391,452,470,575,465,610,468,136,462,513
539,539,539,539,539,539,539,539,539,455,467,576,366,592,462,118,467,524
670,670,670,670,670,670,670,670,670,479,492,575,455,586,448,123,480,531
527,527,527,527,527,527,527,527,527,462,487,576,382,561,457,127,544,519
319,319,319,319,319,319,319,319,319,499,487,577,529,561,455,115,697,519
339,339,339,339,339,339,339,339,339,484,508,576,505,569,463,124,824,527
368,368,368,368,368,368,368,368,368,487,500,573,472,570,451,133,588,500
374,374,374,374,374,374,374,374,374,499,496,578,235,541,461,135,443,505
380,380,380,380,380,380,380,380,380,529,494,580,367,536,455,132,484,484
384,384,384,384,384,384,384,384,384,524,496,573,318,544,464,137,495,467
390,390,390,390,390,390,390,390,390,533,496,577,455,557,449,135,467,448
388,388,388,388,388,388,388,388,388,563,504,580,382,528,463,143,486,471
387,387,387,387,387,387,387,387,387,551,499,576,476,557,487,134,476,436
395,395,395,395,395,395,395,395,395,543,493,576,414,551,633,134,481,448
399,399,399,399,399,399,399,399,399,537,502,573,487,558,617,147,487,433
406,406,406,406,406,406,406,406,406,531,500,573,406,544,475,147,496,444
417,417,417,417,417,417,417,417,417,483,493,567,486,563,435,155,504,440
419,419,419,419,419,419,419,419,419,496,505,569,413,551,455,147,515,452
427,427,427,427,427,427,427,427,427,455,492,569,483,565,446,151,515,438
434,434,434,434,434,434,434,434,434,463,492,576,385,552,459,156,526,455
448,448,448,448,448,448,448,448,448,446,492,573,476,557,446,164,531,444
462,462,462,462,462,462,462,462,462,455,487,570,407,557,456,148,556,462
467,467,467,467,467,467,467,467,467,438,485,569,496,553,448,143,569,467
480,480,480,480,480,480,480,480,480,440,481,562,444,548,451,142,571,455
480,480,480,480,480,480,480,480,480,467,487,561,515,564,449,140,579,463
492,492,492,492,492,492,492,492,492,454,496,562,463,543,465,150,572,460
487,487,487,487,487,487,487,487,487,448,488,557,537,564,454,153,551,462
487,487,487,487,487,487,487,487,487,443,501,561,480,554,462,146,556,451
480,480,480,480,480,480,480,480,480,448,508,562,568,580,462,143,545,463
463,463,463,463,463,463,463,463,463,446,499,567,487,583,472,127,523,468
454,454,454,454,454,454,454,454,454,439,507,569,543,601,460,167,497,465
436,436,436,436,436,436,436,436,436,470,502,570,463,570,472,349,486,468
435,435,435,435,435,435,435,435,435,455,505,579,510,594,480,425,454,455
428,428,428,428,428,428,428,428,428,457,502,586,428,559,496,300,432,476
430,430,430,430,430,430,430,430,430,455,496,589,480,575,494,163,433,475
438,438,438,438,438,438,438,438,438,457,503,586,403,562,515,164,435,460
448,448,448,448,448,448,448,448,448,472,502,589,463,561,521,150,420,470
451,451,451,451,451,451,451,451,451,460,521,588,355,554,524,150,443,480
457,457,457,457,457,457,457,457,457,451,526,591,432,569,513,140,440,473
463,463,463,463,463,463,463,463,463,478,507,594,357,537,518,147,444,459
476,476,476,476,476,476,476,476,476,451,514,591,447,552,492,150,441,444
491,491,491,491,491,491,491,491,491,451,502,592,376,525,483,152,451,455
